1613730384.00
64.000000
-0.00
-0.00
-0.00
-0.00
-0.00
-0.00
-0.00
-0.00
-0.00
-0.00
0.00
0.01
0.01
-0.00
-0.03
-0.05
-0.05
0.00
0.13
0.36
0.66
1.01
1.37
1.72
2.06
2.40
2.79
3.24
3.80
4.42
5.06
5.66
6.20
6.68
7.15
7.68
8.31
9.14
10.09
11.04
11.88
12.56
13.14
13.76
14.65
15.96
17.91
20.32
22.90
25.38
27.58
29.57
31.68
34.32
37.81
42.54
48.15
54.10
59.83
64.97
69.58
74.14
79.34
85.71
93.76
103.00
112.62
121.73
129.77
136.75
143.30
150.75
157.77
166.64
177.95
191.79
206.97
220.57
228.25
225.36
208.53
176.87
132.76
80.05
23.07
-34.94
-92.44
-149.16
-205.23
-260.37
-313.74
-363.87
-409.83
-450.91
-486.50
-515.74
-537.23
-549.22
-549.96
-538.37
-514.21
-478.67
-433.88
-382.45
-327.02
-269.84
-212.63
-156.66
-102.95
-52.37
-5.90
35.58
71.43
101.35
125.50
144.38
158.69
169.15
176.37
180.75
182.57
182.07
179.51
175.23
169.65
163.18
156.15
148.81
141.30
133.69
126.02
118.33
110.69
103.16
95.80
88.68
81.83
75.25
68.95
62.95
57.25
51.86
46.78
42.03
37.59
33.45
29.61
26.07
22.81
19.83
17.11
14.67
12.48
10.54
8.83
7.35
6.07
4.97
4.05
3.27
2.62
2.09
1.65
1.30
1.01
0.79
0.61
0.47
0.37
0.28
0.23
0.18
0.15
0.13
0.13
0.13
0.14
0.16
0.18
0.21
0.25
0.28
0.32
0.37
0.41
0.46
0.50
0.55
0.61
0.66
0.71
0.77
0.84
0.91
0.99
1.08
1.17
1.28
1.40
1.54
1.69
1.86
2.05
2.27
2.50
2.76
3.05
3.36
3.71
4.08
4.50
4.94
5.43
5.95
6.51
7.11
7.75
8.44
9.18
9.95
10.78
11.64
12.55
13.51
14.53
15.61
16.76
17.96
19.21
20.49
21.75
22.92
23.91
24.62
24.90
24.65
23.77
22.18
19.86
16.84
13.17
9.02
4.57
0.01
-4.42
-8.53
-12.12
-15.05
-17.24
-18.66
-19.32
-19.31
-18.73
-17.70
-16.33
-14.74
-12.99
-11.14
-9.23
-7.25
-5.28
-3.36
-1.51
0.26
1.97
3.69
5.46
7.35
9.47
11.70
13.99
16.29
18.61
20.98
23.46
26.16
29.19
32.65
36.32
40.03
43.67
47.21
50.72
54.33
58.28
62.74
67.91
73.32
78.63
83.58
88.04
92.13
96.14
100.40
105.21
110.71
116.07
120.53
123.36
124.08
122.48
118.43
111.56
100.66
88.40
74.92
59.83
42.68
23.38
2.38
-19.42
-41.00
-61.60
-80.83
-99.53
-118.65
-139.20
-162.12
-188.11
-217.22
-248.35
-278.84
-304.75
-322.29
-328.58
-322.88
-306.92
-284.26
-258.97
-234.33
-212.26
-193.38
-178.04
-166.27
-157.98
-152.75
-149.58
-147.05
-143.62
-138.11
-130.03
-119.74
-108.17
-96.52
-85.80
-76.50
-68.24
-59.88
-49.75
-36.40
-19.23
1.10
22.91
44.09
62.94
78.94
92.81
106.07
119.98
134.77
149.41
162.15
171.59
177.35
180.40
182.27
184.20
186.38
187.93
187.55
184.40
178.63
171.17
163.24
155.57
148.14
140.37
131.59
121.56
110.51
99.00
87.52
76.26
65.03
53.45
41.26
28.50
15.53
2.87
-9.03
-19.99
-30.04
-39.39
-48.29
-56.84
-64.95
-72.21
-77.98
-81.50
-82.11
-79.46
-73.70
-65.52
-55.94
-46.08
-36.88
-28.88
-22.30
-17.05
-12.99
-9.98
-7.94
-6.73
-6.15
-5.84
-5.40
-4.45
-2.77
-0.37
2.48
5.34
7.76
9.32
9.88
9.56
8.65
7.48
6.26
4.96
3.34
1.14
-1.75
-5.22
-8.89
-12.40
-15.45
-18.09
-20.55
-23.25
-26.58
-30.78
-35.84
-41.39
-46.81
-51.17
-53.60
-53.38
-50.31
-44.67
-37.21
-28.86
-20.51
-12.82
-6.16
-0.70
3.53
6.63
8.79
10.32
11.58
12.96
14.64
16.63
18.75
20.69
22.23
23.23
23.71
23.71
23.36
22.70
21.75
20.46
18.76
16.55
13.72
10.19
5.96
1.19
-3.86
-8.81
-13.32
-17.18
-20.39
-23.29
-26.34
-30.12
-35.00
-41.00
-47.64
-53.92
-58.56
-60.30
-58.35
-52.61
-43.84
-33.39
-22.86
-13.51
-5.95
0.02
5.20
10.58
17.09
25.31
35.59
48.08
62.73
79.21
96.79
114.41
130.96
145.65
158.18
168.50
176.42
181.14
181.31
175.41
162.46
142.66
117.41
89.00
59.97
32.51
8.09
-12.45
-28.87
-41.26
-49.99
-55.64
-59.05
-61.24
-63.16
-65.50
-68.39
-71.39
-73.62
-74.16
-72.55
-68.94
-64.10
-58.92
-54.10
-49.74
-45.48
-40.84
-35.55
-29.80
-24.12
-19.22
-15.49
-12.96
-11.25
-9.79
-8.07
-5.87
-3.33
-0.72
1.64
3.61
5.23
6.64
7.91
8.94
9.47
9.15
7.77
5.26
1.87
-1.97
-5.77
-9.12
-11.86
-14.08
-16.17
-18.63
-21.90
-26.16
-31.20
-36.41
-40.91
-43.78
-44.27
-42.02
-37.15
-30.20
-21.99
-13.46
-5.46
1.42
6.84
10.73
13.18
14.40
14.66
14.29
13.67
13.18
13.14
13.69
14.82
16.32
17.86
19.19
20.15
20.76
21.12
21.32
21.36
21.08
20.24
18.59
16.07
12.79
9.11
5.44
2.10
-0.80
-3.39
-5.97
-8.88
-12.35
-16.47
-21.12
-25.94
-30.34
-33.53
-34.72
-33.28
-29.05
-22.42
-14.28
-5.78
2.04
8.49
13.36
16.76
18.99
20.27
20.70
20.37
19.42
18.22
17.24
17.01
17.79
19.52
21.72
23.75
25.00
25.18
24.40
23.02
21.49
20.01
18.51
16.68
14.19
10.91
6.96
2.73
-1.33
-4.84
-7.75
-10.22
-12.60
-15.23
-18.31
-21.93
-26.03
-30.46
-34.94
-39.00
-41.97
-43.08
-41.71
-37.64
-31.27
-23.51
-15.52
-8.31
-2.44
2.07
5.60
8.58
11.27
13.59
15.32
16.27
16.55
16.51
16.67
17.50
19.08
21.23
23.46
25.25
26.25
26.37
25.74
24.60
23.20
21.65
19.97
18.03
15.71
12.93
9.75
6.33
2.89
-0.38
-3.42
-6.22
-8.92
-11.64
-14.53
-17.78
-21.55
-25.91
-30.70
-35.46
-39.36
-41.42
-40.85
-37.29
-31.08
-23.09
-14.51
-6.45
0.33
5.55
9.32
11.97
13.84
15.14
16.02
16.54
16.82
17.03
17.36
17.96
18.85
19.98
21.19
22.31
23.20
23.73
23.84
23.45
22.54
21.13
19.28
17.11
14.77
12.37
9.98
7.62
5.28
2.97
0.69
-1.52
-3.68
-5.81
-7.93
-10.06
-12.21
-14.45
-16.93
-19.93
-23.72
-28.36
-33.49
-38.24
-41.46
-42.04
-39.43
-33.79
-26.08
-17.60
-9.55
-2.68
2.82
7.16
10.66
13.48
15.60
16.92
17.45
17.48
17.47
17.97
19.34
21.65
24.63
27.86
30.89
33.41
35.35
36.81
38.07
39.31
40.58
41.69
42.31
42.10
40.91
38.88
36.32
33.63
31.08
28.73
26.45
24.10
21.54
18.72
15.67
12.35
8.78
4.96
0.98
-3.01
-6.84
-10.40
-13.79
-17.28
-21.30
-26.13
-31.71
-37.42
-42.15
-44.67
-44.09
-40.29
-33.94
-26.22
-18.33
-11.06
-4.69
0.88
5.76
9.92
13.09
14.99
15.49
14.73
13.07
10.92
8.67
6.61
4.95
3.90
3.66
4.27
5.64
7.42
9.05
10.03
9.96
8.89
7.18
5.43
4.13
3.40
3.05
2.52
1.36
-0.70
-3.55
-6.87
-10.27
-13.47
-16.35
-18.82
-20.84
-22.40
-23.58
-24.70
-26.17
-28.39
-31.50
-35.34
-39.53
-43.70
-47.56
-50.88
-53.38
-54.56
-53.89
-51.01
-46.08
-39.85
-33.50
-28.25
-24.99
-24.01
-25.01
-27.24
-29.65
-31.13
-30.70
-27.72
-22.07
-14.30
-5.57
2.66
9.05
12.91
14.50
15.03
16.16
19.42
25.51
34.08
43.87
53.19
60.59
65.29
67.18
66.76
64.77
62.08
59.50
57.71
57.03
57.20
57.30
55.90
51.58
43.41
31.33
16.12
-0.80
-17.78
-33.24
-45.88
-54.89
-60.00
-61.66
-60.83
-58.76
-56.47
-54.40
-52.26
-49.25
-44.57
-37.90
-29.61
-20.67
-12.22
-5.26
-0.22
3.02
5.11
6.84
8.89
11.56
14.74
18.01
20.82
22.76
23.64
23.62
23.00
22.16
21.43
20.92
20.62
20.31
19.76
18.72
17.08
14.82
12.04
8.89
5.49
1.96
-1.69
-5.47
-9.50
-13.87
-18.64
-23.67
-28.62
-32.93
-36.00
-37.54
-37.79
-37.72
-38.80
-42.43
-49.35
-59.11
-70.23
-80.69
-88.84
-93.91
-96.17
-96.47
-95.64
-94.09
-91.85
-89.05
-86.16
-84.07
-83.61
-85.03
-87.73
-90.37
-91.60
-90.73
-88.14
-85.11
-83.23
-83.80
-87.34
-93.56
-101.35
-109.07
-114.62
-115.84
-110.92
-99.03
-80.67
-57.56
-32.01
-5.99
19.46
44.29
68.77
92.83
115.58
135.51
151.03
160.97
164.95
163.14
156.22
145.25
131.69
117.34
104.13
93.58
86.42
82.38
80.31
78.73
76.31
72.34
66.79
60.15
53.15
46.37
40.05
34.19
28.69
23.52
18.85
14.85
11.53
8.62
5.61
2.04
-2.23
-6.87
-11.20
-14.54
-16.54
-17.39
-17.72
-18.39
-20.12
-23.32
-27.95
-33.59
-39.48
-44.72
-48.39
-49.76
-48.40
-44.38
-38.22
-30.71
-22.75
-15.05
-8.00
-1.78
3.62
8.14
11.70
14.23
15.72
16.40
16.65
17.00
17.93
19.80
22.63
26.11
29.55
32.07
32.83
31.31
27.46
21.69
14.74
7.44
0.44
-5.81
-11.13
-15.40
-18.56
-20.60
-21.57
-21.76
-21.61
-21.74
-22.72
-24.91
-28.25
-32.21
-35.89
-38.26
-38.49
-36.23
-31.68
-25.53
-18.60
-11.59
-4.84
1.65
8.01
14.19
19.89
24.58
27.69
29.02
28.77
27.59
26.27
25.45
25.38
25.93
26.68
27.16
26.97
25.90
23.92
21.12
17.72
14.00
10.28
6.86
3.89
1.37
-0.95
-3.50
-6.77
-11.09
-16.47
-22.43
-28.03
-32.14
-33.75
-32.30
-27.89
-21.22
-13.38
-5.50
1.48
7.08
11.19
14.08
16.08
17.52
18.57
19.32
19.84
20.20
20.56
20.97
21.45
21.92
22.30
22.66
23.12
23.86
24.90
26.01
26.79
26.82
25.89
24.06
21.60
18.82
15.86
12.67
9.08
4.87
-0.13
-5.95
-12.41
-19.06
-25.17
-29.78
-31.98
-31.10
-27.03
-20.28
-11.84
-2.94
5.39
12.44
17.99
22.17
25.25
27.50
29.08
30.07
30.56
30.70
30.71
30.84
31.25
31.94
32.74
33.39
33.65
33.32
32.33
30.65
28.37
25.58
22.46
19.20
15.97
12.89
9.89
6.82
3.43
-0.50
-5.11
-10.40
-16.16
-21.97
-27.08
-30.59
-31.57
-29.40
-24.11
-16.39
-7.49
1.27
8.87
14.89
19.44
22.87
25.45
27.20
28.01
27.78
26.73
25.36
24.32
24.14
24.94
26.45
28.06
29.16
29.33
28.52
26.97
25.10
23.16
21.20
19.03
16.40
13.14
9.33
5.28
1.35
-2.19
-5.31
-8.22
-11.33
-15.10
-19.85
-25.63
-32.13
-38.65
-44.16
-47.54
-47.92
-44.94
-38.93
-30.82
-21.82
-13.04
-5.20
1.44
7.06
11.95
16.34
20.30
23.77
26.71
29.15
31.31
33.41
35.59
37.82
39.82
41.20
41.63
40.98
39.37
37.16
34.72
32.29
29.88
27.34
24.50
21.29
17.79
14.16
10.54
7.02
3.60
0.31
-2.83
-5.78
-8.61
-11.53
-14.90
-19.08
-24.21
-30.03
-35.86
-40.66
-43.34
-43.12
-39.74
-33.60
-25.61
-16.90
-8.49
-1.01
5.31
10.58
14.95
18.53
21.24
22.99
23.82
23.97
23.89
24.06
24.76
25.98
27.41
28.67
29.48
29.81
29.87
29.88
29.93
29.89
29.41
28.19
26.03
23.05
19.61
16.16
13.09
10.56
8.53
6.75
4.90
2.76
0.17
-2.83
-6.16
-9.65
-13.12
-16.44
-19.52
-22.42
-25.30
-28.48
-32.25
-36.68
-41.41
-45.65
-48.32
-48.42
-45.43
-39.48
-31.38
-22.36
-13.60
-5.95
0.25
5.08
8.89
12.00
14.63
16.78
18.38
19.40
19.91
20.14
20.43
21.04
22.03
23.28
24.48
25.32
25.64
25.48
24.99
24.33
23.59
22.72
21.60
20.18
18.48
16.63
14.74
12.88
11.02
9.12
7.15
5.16
3.27
1.55
0.01
-1.48
-3.10
-5.01
-7.29
-9.90
-12.68
-15.44
-18.04
-20.41
-22.64
-24.85
-27.30
-30.22
-33.70
-37.55
-41.21
-43.83
-44.50
-42.58
-37.92
-31.04
-22.90
-14.65
-7.27
-1.28
3.21
6.47
8.80
10.42
11.42
11.83
11.76
11.50
11.43
11.89
13.01
14.60
16.30
17.74
18.70
19.20
19.43
19.59
19.71
19.67
19.24
18.23
16.63
14.61
12.45
10.37
8.51
6.85
5.32
3.84
2.38
0.98
-0.35
-1.64
-3.02
-4.66
-6.69
-9.10
-11.74
-14.39
-16.83
-18.97
-20.90
-22.85
-25.14
-27.98
-31.49
-35.50
-39.55
-42.96
-44.94
-44.79
-42.13
-37.09
-30.26
-22.56
-14.93
-8.16
-2.68
1.41
4.24
6.02
7.01
7.44
7.53
7.51
7.59
7.94
8.67
9.72
10.94
12.11
13.06
13.80
14.48
15.31
16.39
17.57
18.46
18.62
17.72
15.77
13.10
10.23
7.61
5.49
3.84
2.37
0.72
-1.45
-4.26
-7.67
-11.40
-15.08
-18.37
-21.07
-23.27
-25.30
-27.61
-30.59
-34.32
-38.63
-43.11
-47.33
-50.96
-53.83
-55.88
-57.09
-57.43
-56.86
-55.09
-51.45
-44.84
-33.88
-17.50
4.49
30.86
59.09
85.98
108.55
124.94
134.73
138.85
138.81
136.16
132.03
127.03
121.48
115.57
109.43
102.99
95.91
87.55
77.16
64.27
48.99
32.11
14.95
-1.10
-14.88
-25.78
-33.82
-39.49
-43.58
-47.00
-50.54
-54.69
-59.51
-64.66
-69.55
-73.59
-76.41
-77.94
-78.43
-78.26
-77.92
-77.85
-78.42
-79.78
-81.79
-83.86
-85.06
-84.33
-80.83
-74.32
-65.27
-54.80
-44.22
-34.60
-26.51
-19.99
-14.88
-11.04
-8.57
-7.63
-8.22
-9.87
-11.63
-12.30
-10.69
-6.06
1.71
11.99
23.50
34.56
43.57
49.51
52.22
52.56
52.11
52.67
55.61
61.49
69.74
78.64
85.65
88.03
83.67
71.95
54.16
33.19
12.57
-4.80
-17.58
-26.15
-31.94
-36.54
-40.83
-44.84
-47.98
-49.67
-49.63
-47.95
-44.92
-40.76
-35.55
-29.40
-22.52
-15.43
-8.89
-3.75
-0.66
0.16
-0.97
-3.25
-5.69
-7.43
-8.01
-7.44
-6.14
-4.68
-3.57
-2.99
-2.87
-2.95
-2.99
-2.91
-2.91
-3.33
-4.46
-6.40
-8.99
-11.84
-14.59
-17.03
-19.26
-21.59
-24.42
-28.01
-32.44
-37.56
-42.97
-48.10
-52.20
-54.47
-54.22
-51.10
-45.29
-37.48
-28.71
-20.05
-12.39
-6.19
-1.54
1.73
3.93
5.26
5.85
5.78
5.13
4.14
3.15
2.54
2.57
3.32
4.64
6.25
7.85
9.23
10.22
10.64
10.25
8.74
5.89
1.72
-3.46
-9.10
-14.58
-19.43
-23.46
-26.88
-30.19
-33.97
-38.69
-44.38
-50.53
-56.09
-59.79
-60.46
-57.49
-51.04
-42.05
-31.92
-22.14
-13.87
-7.69
-3.50
-0.70
1.52
3.92
6.84
10.16
13.31
15.60
16.51
15.92
14.18
11.88
9.53
7.32
4.95
1.85
-2.67
-9.01
-17.08
-26.26
-35.61
-44.24
-51.67
-58.11
-64.35
-71.54
-80.57
-91.76
-104.69
-118.25
-130.94
-141.18
-147.62
-149.46
-146.67
-139.90
-130.10
-117.86
-102.87
-83.70
-58.22
-24.60
17.42
65.62
115.34
160.50
195.63
217.97
228.76
233.14
238.50
251.70
276.31
311.07
350.08
384.81
407.10
411.61
396.93
365.10
320.09
266.38
208.20
149.57
94.55
47.13
10.48
-14.12
-27.88
-34.27
-37.76
-42.24
-49.78
-60.39
-72.64
-84.71
-95.24
-103.65
-109.93
-114.25
-116.59
-116.70
-114.26
-109.13
-101.69
-92.82
-83.73
-75.61
-69.21
-64.67
-61.53
-59.08
-56.65
-53.96
-51.04
-48.17
-45.62
-43.43
-41.45
-39.37
-36.91
-33.95
-30.59
-27.12
-23.90
-21.29
-19.51
-18.63
-18.54
-19.05
-19.98
-21.23
-22.86
-24.91
-27.42
-30.26
-33.18
-35.95
-38.48
-40.89
-43.50
-46.67
-50.66
-55.56
-61.22
-67.30
-73.31
-78.58
-82.37
-83.97
-82.92
-79.21
-73.27
-65.92
-57.98
-49.98
-42.01
-33.80
-25.01
-15.62
-6.08
2.83
10.29
15.90
19.79
22.55
24.89
27.45
30.65
34.73
39.84
46.00
52.99
60.21
66.82
71.92
74.91
75.65
74.36
71.47
67.33
62.23
56.44
50.32
44.31
38.68
33.39
28.01
21.95
14.67
6.07
-3.46
-13.14
-22.00
-29.14
-33.90
-35.88
-34.94
-31.30
-25.47
-18.28
-10.75
-3.74
2.21
7.04
11.09
14.78
18.32
21.57
24.13
25.63
26.07
25.80
25.44
25.50
26.09
26.89
27.29
26.84
25.39
23.30
21.07
19.23
17.96
17.10
16.25
15.00
13.13
10.66
7.79
4.77
1.76
-1.13
-3.88
-6.42
-8.72
-10.78
-12.77
-14.88
-17.34
-20.13
-22.86
-24.82
-25.17
-23.30
-19.05
-12.83
-5.43
2.24
9.47
15.84
21.23
25.70
29.23
31.78
33.23
33.52
32.78
31.42
29.99
29.05
28.93
29.58
30.67
31.65
32.15
32.08
31.62
31.16
30.91
30.78
30.35
29.06
26.51
22.66
17.92
12.95
8.48
4.96
2.48
0.78
-0.66
-2.39
-4.91
-8.48
-13.06
-18.17
-22.99
-26.52
-27.81
-26.39
-22.36
-16.51
-10.00
-4.06
0.39
2.87
3.46
2.57
0.75
-1.53
-3.99
-6.54
-9.22
-12.06
-14.97
-17.74
-20.06
-21.55
-21.82
-20.57
-17.59
-12.87
-6.63
0.65
8.25
15.40
21.32
25.45
27.47
27.43
25.83
23.57
21.80
21.42
22.68
24.73
25.87
24.16
18.34
8.49
-3.89
-16.49
-27.08
-34.25
-37.59
-37.37
-34.10
-28.27
-20.44
-11.51
-2.79
4.24
8.43
9.47
7.97
5.19
2.42
0.56
-0.15
0.05
0.72
1.50
2.18
2.75
3.27
3.82
4.51
5.49
6.92
8.83
11.01
12.98
14.10
13.76
11.71
8.13
3.56
-1.26
-5.79
-9.76
-13.08
-15.72
-17.38
-17.60
-15.86
-11.95
-6.20
0.53
7.15
12.65
16.51
18.75
19.77
20.02
19.71
18.77
17.00
14.38
11.19
8.02
5.49
3.96
3.34
3.08
2.44
0.83
-1.91
-5.45
-9.15
-12.29
-14.38
-15.25
-15.10
-14.37
-13.58
-13.29
-13.92
-15.76
-18.84
-22.91
-27.36
-31.35
-33.98
-34.56
-32.85
-29.06
-23.85
-18.00
-12.21
-6.91
-2.28
1.63
4.77
7.01
8.19
8.27
7.40
5.97
4.50
3.41
2.91
2.92
3.17
3.41
3.43
3.15
2.55
1.60
0.28
-1.42
-3.47
-5.80
-8.39
-11.25
-14.53
-18.43
-23.10
-28.56
-34.48
-40.16
-44.60
-46.76
-45.91
-41.96
-35.50
-27.63
-19.55
-12.12
-5.68
-0.14
4.74
8.98
12.37
14.55
15.34
14.89
13.69
12.35
11.35
10.86
10.70
10.59
10.24
9.57
8.68
7.75
6.94
6.24
5.52
4.63
3.47
2.07
0.52
-1.21
-3.35
-6.29
-10.36
-15.57
-21.35
-26.57
-29.86
-30.03
-26.58
-19.78
-10.67
-0.67
8.80
16.74
22.72
26.75
29.20
30.43
30.66
30.00
28.46
26.15
23.38
20.62
18.33
16.83
16.21
16.34
16.98
17.89
18.82
19.49
19.57
18.73
16.73
13.56
9.45
4.84
0.13
-4.38
-8.58
-12.46
-15.97
-18.88
-20.76
-21.07
-19.46
-15.95
-11.05
-5.77
-1.19
1.80
2.89
2.41
1.10
-0.20
-0.97
-1.13
-0.97
-0.92
-1.20
-1.72
-2.13
-2.06
-1.34
-0.17
1.00
1.61
1.25
-0.21
-2.59
-5.48
-8.42
-11.06
-13.24
-15.02
-16.68
-18.56
-21.04
-24.34
-28.44
-32.93
-37.13
-40.13
-41.16
-39.81
-36.17
-30.85
-24.69
-18.51
-12.82
-7.80
-3.34
0.69
4.39
7.74
10.62
12.98
14.82
16.21
17.24
18.01
18.57
18.98
19.24
19.33
19.16
18.66
17.81
16.68
15.39
13.97
12.37
10.50
8.25
5.74
3.23
1.09
-0.36
-0.93
-0.48
1.12
4.08
8.59
14.58
21.60
28.82
35.24
40.01
42.67
43.18
41.84
39.13
35.55
31.66
28.05
25.23
23.55
23.05
23.33
23.68
23.27
21.45
18.01
13.20
7.60
1.90
-3.35
-7.89
-11.70
-14.97
-17.91
-20.70
-23.47
-26.29
-29.20
-32.12
-34.78
-36.70
-37.29
-36.13
-33.18
-28.90
-24.12
-19.78
-16.60
-14.83
-14.27
-14.47
-14.97
-15.58
-16.34
-17.45
-19.04
-21.01
-23.08
-24.85
-26.01
-26.45
-26.30
-25.84
-25.35
-24.97
-24.68
-24.31
-23.77
-23.14
-22.72
-22.93
-24.06
-26.14
-28.88
-31.75
-34.31
-36.33
-37.88
-39.12
-40.07
-40.49
-39.90
-37.86
-34.19
-29.14
-23.30
-17.40
-12.05
-7.55
-3.85
-0.61
2.70
6.73
12.05
19.04
27.66
37.47
47.60
57.01
64.70
69.96
72.53
72.49
70.29
66.51
61.81
56.89
52.35
48.58
45.61
43.11
40.47
37.07
32.59
27.19
21.58
16.79
13.77
13.06
14.58
17.61
21.04
23.79
25.13
25.00
23.88
22.62
21.97
22.25
23.17
23.87
23.34
20.73
15.86
9.25
2.12
-4.08
-8.07
-9.14
-7.40
-3.63
0.96
5.16
8.06
9.30
9.00
7.67
5.89
4.11
2.50
0.91
-0.97
-3.42
-6.55
-10.25
-14.28
-18.30
-21.99
-25.12
-27.48
-28.89
-29.28
-28.63
-27.08
-24.86
-22.16
-19.19
-16.02
-12.68
-9.16
-5.46
-1.60
2.47
6.75
11.23
15.75
19.99
23.49
25.85
26.81
26.35
24.72
22.30
19.46
16.50
13.59
10.88
8.49
6.63
5.51
5.38
6.49
9.15
13.52
19.48
26.36
32.87
37.42
38.67
36.18
30.76
24.07
17.84
13.00
9.21
5.20
-0.32
-7.82
-16.56
-24.93
-31.28
-34.57
-34.64
-32.00
-27.49
-22.04
-16.56
-12.04
-9.38
-9.12
-11.08
-14.42
-17.95
-20.65
-22.12
-22.61
-22.77
-23.25
-24.47
-26.56
-29.46
-32.84
-36.10
-38.42
-38.85
-36.76
-32.18
-25.91
-19.22
-13.45
-9.42
-7.36
-6.97
-7.76
-9.33
-11.30
-13.34
-15.02
-15.90
-15.77
-14.67
-13.04
-11.41
-10.28
-9.82
-9.93
-10.31
-10.65
-10.82
-10.87
-11.02
-11.54
-12.62
-14.25
-16.26
-18.29
-20.00
-21.14
-21.55
-21.19
-20.03
-18.01
-15.06
-11.21
-6.72
-2.04
2.25
5.68
8.00
9.21
9.47
8.95
7.76
6.00
3.84
1.53
-0.61
-2.34
-3.57
-4.38
-4.88
-5.20
-5.39
-5.44
-5.44
-5.48
-5.75
-6.35
-7.24
-8.31
-9.43
-10.56
-11.73
-12.96
-14.08
-14.72
-14.39
-12.65
-9.43
-5.03
-0.15
4.43
8.11
10.59
11.92
12.35
12.14
11.45
10.34
8.75
6.68
4.23
1.65
-0.75
-2.61
-3.69
-3.93
-3.47
-2.63
-1.83
-1.44
-1.76
-2.94
-5.01
-7.89
-11.48
-15.57
-19.87
-23.97
-27.32
-29.37
-29.66
-28.04
-24.64
-19.98
-14.69
-9.43
-4.72
-0.84
2.04
3.83
4.45
3.94
2.44
0.30
-2.02
-4.04
-5.45
-6.23
-6.57
-6.80
-7.17
-7.71
-8.33
-8.80
-9.00
-9.04
-9.21
-9.98
-11.70
-14.59
-18.54
-23.14
-27.72
-31.51
-33.73
-33.85
-31.63
-27.26
-21.29
-14.56
-7.92
-2.08
2.58
5.92
8.01
8.94
8.82
7.72
5.89
3.62
1.33
-0.62
-2.06
-3.01
-3.65
-4.20
-4.82
-5.54
-6.35
-7.23
-8.27
-9.69
-11.73
-14.61
-18.40
-23.00
-28.04
-32.96
-36.98
-39.27
-39.11
-36.07
-30.25
-22.23
-13.03
-3.75
4.59
11.34
16.23
19.27
20.66
20.61
19.37
17.23
14.60
11.93
9.59
7.84
6.64
5.80
4.98
3.93
2.54
0.89
-0.80
-2.40
-3.90
-5.61
-7.96
-11.44
-16.24
-22.15
-28.37
-33.74
-36.99
-37.13
-33.84
-27.49
-19.04
-9.70
-0.57
7.59
14.44
19.87
23.93
26.53
27.59
27.10
25.24
22.52
19.63
17.26
15.78
15.19
15.05
14.83
14.10
12.74
10.94
9.01
7.15
5.37
3.40
0.87
-2.64
-7.35
-13.31
-20.14
-27.12
-33.13
-36.96
-37.56
-34.47
-27.96
-18.99
-8.90
1.01
9.85
17.18
22.98
27.32
30.21
31.51
31.13
29.15
25.94
22.14
18.46
15.45
13.35
12.02
11.09
10.06
8.55
6.40
3.71
0.82
-1.81
-3.85
-5.23
-6.31
-7.82
-10.66
-15.54
-22.64
-31.39
-40.49
-48.28
-53.14
-53.99
-50.54
-43.30
-33.40
-22.23
-11.12
-1.12
7.08
13.28
17.75
21.31
25.17
30.54
38.26
48.37
60.05
71.90
82.53
91.01
97.09
100.97
102.81
102.39
98.90
91.36
78.96
61.56
39.85
15.25
-10.34
-35.01
-56.97
-74.97
-88.16
-96.09
-98.58
-95.67
-87.61
-75.01
-58.88
-40.56
-21.55
-3.18
13.52
27.96
39.86
49.14
55.88
60.29
62.71
63.67
63.68
63.08
61.95
60.20
57.75
54.75
51.62
48.93
47.17
46.48
46.64
47.02
46.87
45.44
42.31
37.37
30.88
23.27
14.99
6.35
-2.57
-11.72
-20.89
-29.53
-36.77
-41.70
-43.74
-42.92
-39.80
-35.20
-29.81
-24.03
-18.06
-12.10
-6.62
-2.27
0.30
0.81
-0.47
-2.82
-5.25
-6.91
-7.34
-6.60
-5.12
-3.57
-2.57
-2.51
-3.45
-5.14
-7.25
-9.43
-11.55
-13.73
-16.26
-19.51
-23.72
-28.79
-34.19
-38.96
-41.92
-42.02
-38.67
-31.99
-22.79
-12.32
-1.91
7.45
15.24
21.40
26.03
29.25
31.03
31.34
30.32
28.33
26.01
24.01
22.77
22.34
22.41
22.47
22.09
21.10
19.55
17.66
15.61
13.46
11.12
8.45
5.30
1.52
-2.94
-8.16
-14.06
-20.40
-26.68
-32.06
-35.52
-36.13
-33.37
-27.36
-18.90
-9.27
0.18
8.40
14.92
19.76
23.27
25.80
27.53
28.44
28.47
27.67
26.32
24.87
23.73
23.17
23.15
23.41
23.56
23.30
22.56
21.41
20.08
18.70
17.29
15.71
13.71
11.11
7.78
3.77
-0.86
-6.06
-11.83
-18.15
-24.79
-31.12
-36.08
-38.48
-37.30
-32.32
-24.17
-14.26
-4.21
4.68
11.82
17.26
21.44
24.72
27.16
28.61
28.97
28.37
27.31
26.42
26.23
26.83
27.93
28.95
29.35
28.91
27.73
26.16
24.54
23.03
21.46
19.49
16.79
13.24
9.07
4.71
0.71
-2.62
-5.23
-7.46
-9.81
-12.80
-16.79
-21.83
-27.66
-33.69
-39.06
-42.73
-43.74
-41.45
-35.85
-27.65
-18.01
-8.32
0.34
7.38
12.76
16.76
19.75
21.95
23.43
24.21
24.34
24.08
23.75
23.67
24.03
24.79
25.77
26.69
27.40
27.80
27.94
27.89
27.66
27.14
26.16
24.55
22.27
19.44
16.32
13.23
10.38
7.84
5.55
3.30
0.90
-1.78
-4.70
-7.71
-10.58
-13.14
-15.38
-17.49
-19.81
-22.77
-26.68
-31.58
-37.16
-42.72
-47.19
-49.46
-48.62
-44.34
-36.96
-27.52
-17.42
-7.98
-0.07
6.06
10.62
14.07
16.74
18.73
20.00
20.51
20.40
19.99
19.71
19.82
20.43
21.40
22.49
23.50
24.30
24.88
25.28
25.53
25.63
25.49
25.04
24.16
22.79
20.92
18.61
16.05
13.44
10.98
8.70
6.55
4.33
1.91
-0.80
-3.72
-6.69
-9.52
-12.11
-14.42
-16.46
-18.34
-20.22
-22.36
-25.11
-28.74
-33.31
-38.37
-43.03
-46.12
-46.58
-43.88
-38.24
-30.53
-21.94
-13.59
-6.14
0.11
5.21
9.22
12.14
13.89
14.43
13.96
12.87
11.75
11.12
11.25
12.10
13.37
14.64
15.58
16.08
16.21
16.11
15.85
15.43
14.77
13.78
12.49
10.96
9.33
7.69
6.14
4.67
3.28
1.90
0.39
-1.33
-3.37
-5.70
-8.21
-10.76
-13.19
-15.43
-17.45
-19.37
-21.36
-23.68
-26.63
-30.43
-35.01
-39.91
-44.29
-47.09
-47.43
-44.90
-39.76
-32.82
-25.14
-17.70
-11.17
-5.88
-1.94
0.65
1.92
1.97
1.02
-0.53
-2.23
-3.65
-4.62
-5.17
-5.52
-5.89
-6.37
-6.82
-6.89
-6.21
-4.54
-1.99
1.05
3.97
6.17
7.40
7.78
7.91
8.53
10.36
13.74
18.54
24.22
29.97
35.06
38.98
41.56
42.86
43.10
42.53
41.34
39.65
37.45
34.60
30.93
26.31
20.84
14.93
9.28
4.65
1.71
0.75
1.81
4.53
8.48
13.06
17.65
21.57
24.16
25.00
23.93
21.20
17.32
12.95
8.69
4.91
1.82
-0.59
-2.39
-3.69
-4.56
-5.05
-5.14
-4.83
-4.23
-3.51
-2.95
-2.75
-3.07
-3.89
-5.07
-6.45
-7.92
-9.45
-11.03
-12.72
-14.49
-16.29
-18.12
-19.98
-21.94
-24.00
-26.18
-28.37
-30.54
-32.71
-34.96
-37.49
-40.38
-43.61
-46.80
-49.35
-50.52
-49.68
-46.50
-41.13
-34.07
-26.07
-17.91
-10.23
-3.53
1.85
5.77
8.21
9.36
9.52
9.05
8.26
7.37
6.52
5.86
5.56
5.78
6.62
7.99
9.70
11.42
12.94
14.10
14.82
15.07
14.76
13.84
12.23
10.00
7.27
4.24
1.05
-2.17
-5.39
-8.57
-11.69
-14.76
-17.77
-20.77
-23.80
-26.91
-30.18
-33.61
-37.30
-41.23
-45.33
-49.33
-52.76
-55.03
-55.52
-53.87
-50.06
-44.51
-37.93
-31.13
-24.75
-19.17
-14.47
-10.48
-7.03
-4.00
-1.38
0.85
2.72
4.36
5.99
7.74
9.68
11.67
13.48
14.87
15.70
16.06
16.16
16.27
16.56
17.00
17.42
17.55
17.24
16.45
15.34
14.08
12.88
11.87
11.13
10.76
10.79
11.23
11.91
12.54
12.60
11.60
9.14
5.16
0.04
-5.40
-9.98
-12.57
-12.29
-8.91
-2.83
4.95
13.14
20.51
26.19
29.82
31.54
31.87
31.42
30.70
29.95
29.10
28.00
26.49
24.65
22.83
21.54
21.28
22.32
24.64
27.88
31.56
35.18
38.41
41.06
43.18
44.88
46.34
47.63
48.66
49.21
48.83
47.09
43.58
38.06
30.53
21.16
10.30
-1.63
-14.09
-26.49
-38.13
-48.30
-56.43
-62.19
-65.60
-66.97
-66.83
-65.75
-64.14
-62.21
-59.94
-57.16
-53.73
-49.72
-45.43
-41.39
-38.13
-35.90
-34.54
-33.49
-32.06
-29.70
-26.28
-22.05
-17.50
-13.09
-9.03
-5.32
-1.79
1.62
4.86
7.69
9.86
11.28
12.05
12.50
12.94
13.58
14.37
15.00
15.03
14.00
11.63
7.80
2.65
-3.71
-11.00
-18.87
-26.75
-33.83
-39.18
-41.95
-41.76
-38.80
-33.88
-28.08
-22.45
-17.68
-14.00
-11.29
-9.27
-7.75
-6.69
-6.21
-6.40
-7.19
-8.24
-9.06
-9.13
-8.17
-6.30
-3.93
-1.59
0.33
1.81
3.06
4.41
6.01
7.73
9.19
9.96
9.74
8.43
6.16
3.16
-0.29
-3.95
-7.62
-11.15
-14.53
-17.84
-21.33
-25.28
-30.00
-35.63
-42.02
-48.62
-54.45
-58.27
-58.84
-55.42
-48.00
-37.50
-25.38
-13.28
-2.47
6.50
13.67
19.54
24.52
28.83
32.31
34.68
35.80
35.83
35.29
34.83
34.99
35.92
37.42
39.03
40.26
40.81
40.62
39.82
38.52
36.82
34.70
32.10
29.01
25.44
21.52
17.29
12.84
8.18
3.38
-1.48
-6.28
-10.87
-15.22
-19.40
-23.70
-28.47
-34.12
-40.71
-47.85
-54.56
-59.45
-61.13
-58.66
-51.98
-41.94
-30.12
-18.20
-7.51
1.29
8.23
13.60
17.73
20.67
22.31
22.58
21.68
20.18
18.83
18.32
18.98
20.75
23.16
25.62
27.65
28.97
29.61
29.71
29.39
28.62
27.25
25.10
22.08
18.30
14.04
9.65
5.39
1.37
-2.44
-6.10
-9.65
-13.08
-16.49
-20.12
-24.34
-29.56
-35.88
-42.82
-49.32
-53.83
-54.88
-51.56
-43.91
-32.90
-20.15
-7.39
4.01
13.30
20.35
25.35
28.61
30.33
30.64
29.69
27.79
25.47
23.41
22.25
22.40
23.85
26.24
28.92
31.26
32.83
33.53
33.44
32.76
31.57
29.81
27.38
24.15
20.12
15.43
10.29
4.81
-0.87
-6.73
-12.69
-18.61
-24.37
-29.95
-35.64
-41.95
-49.44
-58.31
-68.07
-77.36
-84.28
-86.96
-84.25
-76.20
-64.11
-50.15
-36.71
-25.77
-18.46
-14.84
-14.00
-14.28
-13.83
-11.05
-5.10
3.89
14.89
26.36
36.89
45.54
52.10
56.80
60.03
62.05
62.90
62.55
61.08
58.87
56.42
54.35
53.03
52.53
52.60
52.86
52.96
52.64
51.90
50.76
49.26
47.33
44.83
41.59
37.48
32.56
26.97
20.99
14.89
8.91
3.20
-2.19
-7.30
-12.31
-17.42
-22.93
-29.15
-36.37
-44.63
-53.57
-62.30
-69.33
-73.02
-71.96
-65.59
-54.42
-39.98
-24.26
-9.12
4.14
15.06
23.78
30.71
36.24
40.60
43.81
45.91
46.99
47.23
46.98
46.54
46.15
45.91
45.83
45.85
45.91
46.03
46.14
46.15
45.81
44.77
42.77
39.63
35.49
30.64
25.48
20.28
15.14
9.98
4.63
-0.96
-6.67
-12.28
-17.56
-22.46
-27.20
-32.22
-37.99
-44.87
-52.80
-61.20
-68.91
-74.44
-76.25
-73.30
-65.40
-53.34
-38.68
-23.26
-8.72
3.87
14.07
21.97
27.87
32.14
35.08
36.94
37.99
38.51
38.82
39.21
39.87
40.93
42.39
44.15
46.04
47.90
49.53
50.80
51.55
51.58
50.67
48.65
45.54
41.53
37.06
32.56
28.36
24.57
20.98
17.27
13.15
8.52
3.57
-1.39
-6.09
-10.48
-14.79
-19.47
-25.04
-31.93
-40.41
-50.44
-61.56
-72.78
-82.62
-89.30
-91.32
-87.87
-79.33
-67.10
-53.21
-39.61
-27.64
-17.83
-10.12
-4.23
0.07
2.90
4.46
5.26
5.95
7.33
9.89
13.74
18.57
23.95
29.47
34.98
40.55
46.29
52.26
58.24
63.87
68.67
72.27
74.53
75.60
75.90
75.89
75.96
76.16
76.28
75.75
73.92
70.25
64.52
56.94
48.03
38.50
28.89
19.47
10.08
0.25
-10.63
-23.20
-37.71
-53.84
-70.47
-85.77
-97.58
-104.03
-104.21
-98.41
-88.12
-75.39
-62.21
-49.92
-39.08
-29.69
-21.58
-14.88
-9.94
-7.30
-7.20
-9.32
-12.66
-15.80
-17.42
-16.79
-14.12
-10.31
-6.60
-3.98
-2.82
-2.95
-3.82
-4.92
-5.93
-6.80
-7.45
-7.79
-7.51
-6.24
-3.74
-0.03
4.37
8.61
11.64
12.57
10.92
6.75
0.56
-7.04
-15.60
-24.93
-34.90
-45.09
-54.48
-61.49
-64.36
-61.85
-53.79
-41.29
-26.40
-11.44
1.78
12.33
20.19
25.85
29.81
32.26
33.14
32.33
30.09
27.17
24.62
23.47
24.21
26.61
29.81
32.73
34.53
34.88
34.05
32.52
30.76
28.90
26.71
23.78
19.78
14.70
8.83
2.78
-2.91
-7.85
-12.01
-15.68
-19.39
-23.72
-29.17
-35.91
-43.60
-51.39
-57.87
-61.43
-60.63
-54.68
-43.84
-29.30
-13.07
2.77
16.42
26.87
33.94
38.05
39.92
40.15
39.20
37.33
34.82
32.04
29.47
27.60
26.63
26.50
26.85
27.28
27.50
27.45
27.25
26.98
26.57
25.65
23.75
20.46
15.69
9.76
3.30
-2.94
-8.40
-12.85
-16.56
-20.07
-24.12
-29.29
-35.89
-43.67
-51.83
-59.04
-63.74
-64.55
-60.66
-52.20
-40.21
-26.44
-12.74
-0.56
9.34
16.95
22.69
27.03
30.24
32.32
33.22
33.02
32.10
30.98
30.17
29.92
30.16
30.59
30.85
30.76
30.35
29.76
29.12
28.35
27.16
25.14
21.94
17.45
11.91
5.88
0.04
-5.06
-9.21
-12.63
-15.94
-19.90
-25.12
-31.84
-39.71
-47.78
-54.74
-59.14
-59.75
-55.97
-47.94
-36.61
-23.49
-10.25
1.69
11.46
18.81
23.98
27.41
29.50
30.51
30.60
29.93
28.79
27.59
26.78
26.69
27.35
28.51
29.68
30.41
30.45
29.85
28.88
27.76
26.56
24.98
22.55
18.83
13.73
7.67
1.45
-4.07
-8.34
-11.38
-13.77
-16.42
-20.17
-25.48
-32.31
-40.17
-48.15
-55.14
-59.93
-61.34
-58.56
-51.42
-40.61
-27.60
-14.29
-2.40
7.01
13.78
18.45
21.85
24.64
26.99
28.71
29.48
29.22
28.25
27.16
26.64
27.04
28.36
30.13
31.74
32.66
32.61
31.62
29.92
27.79
25.40
22.82
19.98
16.72
12.92
8.54
3.77
-1.12
-5.72
-9.75
-13.14
-16.09
-19.01
-22.37
-26.63
-31.98
-38.42
-45.51
-52.51
-58.28
-61.52
-61.11
-56.43
-47.68
-35.88
-22.66
-9.75
1.47
10.25
16.54
20.70
23.32
24.85
25.66
25.91
25.85
25.70
25.76
26.22
27.09
28.26
29.48
30.57
31.39
31.88
32.02
31.72
30.90
29.42
27.27
24.53
21.41
18.21
15.16
12.40
9.86
7.32
4.48
1.12
-2.82
-7.13
-11.49
-15.54
-19.09
-22.25
-25.41
-29.13
-33.90
-39.91
-46.82
-53.64
-58.97
-61.26
-59.38
-52.98
-42.77
-30.27
-17.38
-5.83
3.38
10.00
14.42
17.22
18.86
19.53
19.28
18.23
16.78
15.55
15.14
15.93
17.79
20.29
22.77
24.68
25.76
26.01
25.64
24.83
23.67
22.14
20.18
17.82
15.17
12.43
9.73
7.11
4.43
1.48
-1.83
-5.49
-9.30
-13.02
-16.45
-19.62
-22.74
-26.17
-30.30
-35.38
-41.33
-47.57
-53.05
-56.37
-56.26
-52.02
-43.86
-32.93
-20.93
-9.61
-0.18
6.87
11.68
14.72
16.48
17.26
17.24
16.62
15.67
14.86
14.59
15.15
16.56
18.56
20.71
22.56
23.79
24.24
23.91
22.88
21.24
19.08
16.50
13.61
10.52
7.35
4.10
0.73
-2.80
-6.46
-10.13
-13.62
-16.79
-19.64
-22.32
-25.14
-28.47
-32.67
-37.95
-44.23
-51.01
-57.36
-61.99
-63.64
-61.45
-55.28
-45.86
-34.54
-22.90
-12.30
-3.53
3.22
8.23
12.01
14.99
17.42
19.34
20.69
21.46
21.74
21.81
21.98
22.54
23.61
25.13
26.83
28.37
29.43
29.77
29.24
27.80
25.58
22.74
19.54
16.19
12.80
9.40
5.92
2.30
-1.50
-5.39
-9.26
-12.97
-16.47
-19.79
-23.09
-26.57
-30.47
-35.05
-40.43
-46.51
-52.84
-58.46
-62.10
-62.49
-58.80
-51.01
-40.04
-27.48
-15.12
-4.42
3.86
9.70
13.62
16.33
18.45
20.29
21.94
23.30
24.25
24.77
24.97
25.03
25.11
25.29
25.56
25.85
26.09
26.25
26.33
26.22
25.80
24.84
23.17
20.71
17.62
14.18
10.69
7.39
4.26
1.14
-2.20
-5.87
-9.78
-13.68
-17.29
-20.53
-23.62
-27.07
-31.46
-37.18
-44.10
-51.45
-57.98
-62.15
-62.70
-59.02
-51.42
-40.98
-29.27
-17.83
-7.75
0.47
6.86
11.72
15.37
17.97
19.62
20.41
20.53
20.32
20.18
20.45
21.25
22.49
23.94
25.34
26.52
27.44
28.11
28.52
28.53
27.93
26.53
24.33
21.50
18.41
15.42
12.71
10.24
7.75
4.97
1.68
-2.13
-6.32
-10.61
-14.76
-18.59
-22.09
-25.45
-28.98
-33.05
-37.97
-43.86
-50.40
-56.79
-61.79
-64.00
-62.30
-56.34
-46.71
-34.85
-22.61
-11.59
-2.78
3.64
8.11
11.29
13.75
15.77
17.36
18.46
19.10
19.45
19.87
20.72
22.22
24.33
26.71
28.90
30.48
31.24
31.26
30.75
29.94
28.82
27.24
24.98
22.03
18.57
15.04
11.82
9.08
6.69
4.25
1.37
-2.16
-6.25
-10.53
-14.51
-17.86
-20.50
-22.73
-25.14
-28.41
-33.04
-39.15
-46.21
-53.11
-58.34
-60.45
-58.49
-52.37
-42.90
-31.51
-19.88
-9.36
-0.79
5.63
10.11
13.08
14.91
15.88
16.21
16.09
15.84
15.78
16.21
17.31
19.09
21.34
23.74
25.91
27.54
28.48
28.68
28.21
27.17
25.64
23.68
21.36
18.78
16.03
13.22
10.38
7.48
4.44
1.17
-2.32
-5.98
-9.62
-13.13
-16.41
-19.54
-22.69
-26.22
-30.43
-35.51
-41.31
-47.18
-51.99
-54.39
-53.26
-48.15
-39.53
-28.73
-17.46
-7.28
0.91
6.92
11.12
14.01
15.94
17.01
17.17
16.49
15.24
13.91
13.05
13.02
13.91
15.45
17.21
18.71
19.64
19.88
19.52
18.72
17.64
16.36
14.75
12.57
9.53
5.50
0.57
-4.90
-10.38
-15.37
-19.59
-23.04
-25.94
-28.64
-31.43
-34.52
-38.07
-42.30
-47.37
-53.22
-59.36
-64.67
-67.58
-66.57
-60.66
-49.97
-35.69
-19.79
-4.25
9.51
20.96
30.38
38.26
44.98
50.46
54.30
56.14
55.87
53.79
50.41
46.33
42.05
37.97
34.41
31.64
29.74
28.63
27.95
27.27
26.19
24.45
21.98
18.79
14.91
10.37
5.28
-0.03
-5.13
-9.58
-13.18
-16.04
-18.57
-21.31
-24.66
-28.86
-33.87
-39.59
-45.75
-52.00
-57.69
-61.95
-63.75
-62.23
-57.07
-48.61
-37.95
-26.52
-15.75
-6.56
0.75
6.47
11.19
15.37
19.17
22.38
24.63
25.70
25.73
25.21
24.86
25.26
26.57
28.53
30.58
32.14
32.86
32.76
32.11
31.21
30.12
28.62
26.34
22.95
18.44
13.15
7.72
2.76
-1.41
-4.87
-8.02
-11.39
-15.36
-20.14
-25.71
-31.95
-38.58
-45.14
-50.87
-54.71
-55.57
-52.68
-46.01
-36.37
-25.19
-14.08
-4.26
3.69
9.91
14.82
18.90
22.32
25.00
26.76
27.55
27.62
27.46
27.62
28.45
29.98
31.83
33.47
34.38
34.31
33.36
31.85
30.20
28.61
27.01
25.06
22.40
18.81
14.39
9.53
4.69
0.27
-3.65
-7.22
-10.74
-14.57
-18.92
-23.95
-29.70
-36.12
-42.88
-49.36
-54.52
-57.18
-56.32
-51.52
-43.21
-32.53
-21.06
-10.27
-1.10
6.18
11.80
16.20
19.71
22.41
24.21
25.03
25.01
24.52
24.10
24.25
25.18
26.79
28.65
30.22
31.09
31.07
30.29
29.03
27.59
26.13
24.55
22.62
20.03
16.62
12.41
7.70
2.92
-1.51
-5.34
-8.54
-11.35
-14.18
-17.50
-21.68
-26.91
-33.07
-39.69
-45.87
-50.44
-52.18
-50.21
-44.26
-34.88
-23.26
-10.94
0.64
10.45
18.02
23.32
26.67
28.54
29.37
29.57
29.48
29.35
29.37
29.69
30.40
31.51
33.00
34.66
36.27
37.58
38.45
38.79
38.62
37.94
36.67
34.69
31.79
27.92
23.21
17.98
12.69
7.83
3.66
0.16
-2.96
-6.20
-10.13
-15.17
-21.47
-28.68
-36.04
-42.40
-46.58
-47.59
-45.03
-39.17
-30.85
-21.24
-11.52
-2.64
4.80
10.48
14.28
16.24
16.47
15.31
13.22
10.89
9.01
8.10
8.37
9.62
11.39
13.11
14.43
15.26
15.73
16.00
16.08
15.75
14.67
12.53
9.25
5.05
0.37
-4.31
-8.57
-12.24
-15.37
-18.26
-21.36
-25.22
-30.16
-36.19
-42.77
-48.86
-53.13
-54.29
-51.57
-44.98
-35.36
-24.11
-12.76
-2.58
5.76
12.10
16.63
19.65
21.43
22.16
22.05
21.42
20.72
20.37
20.62
21.47
22.62
23.64
24.14
23.97
23.28
22.38
21.60
20.97
20.21
18.78
16.20
12.27
7.28
1.86
-3.28
-7.70
-11.34
-14.58
-18.02
-22.30
-27.84
-34.73
-42.58
-50.45
-56.98
-60.66
-60.28
-55.42
-46.62
-35.27
-23.15
-11.84
-2.32
5.18
10.97
15.55
19.32
22.41
24.77
26.33
27.16
27.52
27.73
28.10
28.73
29.50
30.14
30.41
30.24
29.72
29.03
28.26
27.31
25.89
23.61
20.24
15.82
10.73
5.48
0.63
-3.52
-6.93
-9.90
-12.88
-16.47
-21.10
-27.00
-33.97
-41.29
-47.82
-52.18
-53.15
-50.09
-43.17
-33.39
-22.28
-11.45
-2.06
5.41
11.13
15.66
19.54
23.03
26.03
28.27
29.58
30.06
30.08
30.16
30.66
31.69
33.03
34.31
35.15
35.28
34.67
33.39
31.63
29.59
27.38
25.03
22.49
19.66
16.44
12.81
8.84
4.66
0.39
-3.82
-7.91
-11.84
-15.69
-19.61
-23.87
-28.76
-34.49
-41.03
-47.91
-54.21
-58.73
-60.23
-57.84
-51.37
-41.48
-29.56
-17.27
-6.11
3.02
9.95
15.05
18.87
21.82
24.06
25.55
26.32
26.59
26.73
27.15
28.03
29.28
30.59
31.62
32.21
32.41
32.37
32.23
31.94
31.29
29.99
27.86
24.98
21.66
18.29
15.16
12.34
9.64
6.75
3.40
-0.46
-4.63
-8.81
-12.69
-16.15
-19.31
-22.47
-26.07
-30.49
-35.99
-42.45
-49.31
-55.48
-59.60
-60.37
-57.03
-49.66
-39.26
-27.46
-15.94
-5.95
2.00
8.08
12.77
16.53
19.57
21.86
23.26
23.81
23.76
23.53
23.52
24.00
24.99
26.33
27.76
29.05
30.06
30.65
30.77
30.31
29.19
27.34
24.78
21.64
18.14
14.58
11.22
8.22
5.50
2.85
-0.01
-3.31
-7.03
-10.94
-14.70
-18.03
-20.90
-23.56
-26.52
-30.31
-35.27
-41.29
-47.67
-53.22
-56.58
-56.56
-52.63
-45.10
-35.01
-23.86
-13.04
-3.58
4.08
9.96
14.32
17.45
19.53
20.69
21.06
20.85
20.38
20.03
20.13
20.89
22.30
24.12
26.01
27.60
28.61
28.92
28.54
27.49
25.81
23.54
20.77
17.67
14.45
11.30
8.32
5.45
2.54
-0.56
-3.85
-7.21
-10.43
-13.32
-15.90
-18.33
-20.96
-24.21
-28.42
-33.67
-39.65
-45.56
-50.22
-52.37
-51.02
-45.86
-37.42
-26.95
-16.03
-6.07
2.04
8.05
12.18
14.83
16.36
16.94
16.69
15.80
14.61
13.56
13.15
13.65
15.06
17.13
19.39
21.37
22.74
23.30
23.05
22.12
20.71
19.01
17.13
15.06
12.63
9.64
5.96
1.72
-2.77
-7.04
-10.72
-13.68
-16.11
-18.45
-21.18
-24.74
-29.37
-35.02
-41.36
-47.73
-53.14
-56.44
-56.59
-53.01
-45.82
-35.91
-24.68
-13.65
-4.03
3.54
9.02
12.77
15.28
16.92
17.89
18.19
17.85
17.05
16.16
15.63
15.85
16.96
18.74
20.69
22.27
23.05
22.91
22.05
20.79
19.40
17.96
16.32
14.21
11.39
7.80
3.61
-0.80
-4.99
-8.58
-11.47
-13.85
-16.16
-18.93
-22.60
-27.39
-33.24
-39.76
-46.28
-51.84
-55.35
-55.84
-52.73
-46.14
-36.92
-26.46
-16.23
-7.34
-0.21
5.25
9.44
12.69
15.09
16.54
17.01
16.68
16.03
15.66
16.05
17.38
19.48
21.85
23.95
25.34
25.87
25.62
24.86
23.82
22.60
21.07
18.99
16.14
12.46
8.16
3.62
-0.77
-4.71
-8.14
-11.16
-14.01
-16.92
-20.18
-24.06
-28.79
-34.45
-40.75
-46.96
-51.93
-54.36
-53.26
-48.33
-40.12
-29.87
-19.11
-9.17
-0.86
5.58
10.35
13.80
16.25
17.86
18.70
18.87
18.60
18.23
18.14
18.63
19.82
21.57
23.56
25.40
26.71
27.27
27.04
26.13
24.71
22.91
20.79
18.36
15.53
12.21
8.39
4.15
-0.27
-4.52
-8.31
-11.49
-14.24
-16.99
-20.26
-24.50
-29.88
-36.14
-42.57
-48.20
-51.86
-52.56
-49.68
-43.21
-33.90
-23.05
-12.20
-2.67
4.82
10.18
13.85
16.37
18.15
19.29
19.77
19.65
19.21
18.90
19.18
20.31
22.14
24.21
25.95
26.93
27.01
26.42
25.49
24.53
23.59
22.45
20.74
18.14
14.60
10.35
5.88
1.71
-1.81
-4.63
-6.95
-9.17
-11.73
-15.02
-19.24
-24.41
-30.23
-36.03
-40.84
-43.53
-43.14
-39.26
-32.19
-22.95
-12.93
-3.42
4.69
11.07
15.74
18.88
20.59
20.92
19.96
18.03
15.73
13.85
13.09
13.82
15.87
18.65
21.34
23.21
23.87
23.38
22.09
20.45
18.75
17.00
15.01
12.49
9.34
5.66
1.76
-2.05
-5.53
-8.71
-11.82
-15.17
-19.08
-23.72
-29.14
-35.20
-41.55
-47.53
-52.22
-54.56
-53.62
-49.04
-41.15
-31.04
-20.12
-9.81
-0.98
6.03
11.38
15.44
18.48
20.61
21.83
22.22
22.05
21.76
21.87
22.72
24.34
26.37
28.26
29.46
29.70
29.07
27.92
26.63
25.39
24.06
22.24
19.53
15.73
11.02
5.88
0.91
-3.44
-7.07
-10.23
-13.41
-17.15
-21.82
-27.51
-33.86
-40.22
-45.54
-48.71
-48.77
-45.23
-38.28
-28.80
-18.20
-7.92
0.92
7.87
13.04
16.92
19.96
22.37
24.09
24.99
25.09
24.66
24.20
24.19
24.84
26.06
27.44
28.55
29.07
28.94
28.37
27.59
26.75
25.82
24.55
22.61
19.77
15.99
11.49
6.71
2.13
-1.88
-5.21
-8.03
-10.80
-14.02
-18.17
-23.46
-29.82
-36.77
-43.47
-48.83
-51.66
-51.07
-46.70
-38.94
-28.91
-18.13
-8.03
0.43
6.95
11.81
15.52
18.55
21.07
23.04
24.40
25.17
25.58
25.93
26.52
27.48
28.78
30.27
31.69
32.84
33.50
33.56
32.95
31.68
29.79
27.37
24.60
21.64
18.64
15.66
12.65
9.50
6.10
2.45
-1.34
-5.04
-8.50
-11.71
-14.90
-18.47
-22.85
-28.31
-34.78
-41.79
-48.45
-53.64
-56.18
-55.18
-50.32
-42.01
-31.30
-19.70
-8.70
0.62
7.79
12.96
16.66
19.47
21.76
23.65
25.07
25.94
26.38
26.62
26.95
27.55
28.39
29.28
29.96
30.26
30.11
29.54
28.64
27.44
25.94
24.06
21.80
19.18
16.32
13.38
10.50
7.75
5.13
2.59
0.03
-2.58
-5.23
-7.89
-10.56
-13.27
-16.16
-19.50
-23.53
-28.40
-33.94
-39.58
-44.31
-46.92
-46.38
-42.22
-34.79
-25.16
-14.84
-5.26
2.63
8.48
12.51
15.14
16.82
17.79
18.12
17.86
17.17
16.41
16.04
16.45
17.76
19.75
21.92
23.69
24.61
24.59
23.80
22.55
21.09
19.46
17.63
15.53
13.22
10.87
8.62
6.54
4.45
2.09
-0.73
-4.01
-7.53
-10.96
-14.04
-16.70
-19.13
-21.69
-24.79
-28.68
-33.26
-37.97
-41.79
-43.57
-42.36
-37.83
-30.45
-21.34
-11.92
-3.42
3.42
8.44
11.88
14.04
15.13
15.19
14.31
12.75
10.97
9.62
9.22
10.03
11.83
14.10
16.16
17.50
17.94
17.63
16.91
16.06
15.14
13.99
12.30
9.84
6.60
2.75
-1.36
-5.42
-9.23
-12.71
-15.87
-18.77
-21.49
-24.17
-27.08
-30.58
-34.94
-40.14
-45.62
-50.25
-52.71
-51.85
-47.25
-39.39
-29.50
-19.16
-9.71
-1.91
4.15
8.76
12.33
15.11
17.14
18.38
18.82
18.64
18.15
17.77
17.81
18.44
19.56
20.92
22.15
22.96
23.19
22.84
22.03
20.88
19.39
17.50
15.09
12.09
8.52
4.52
0.36
-3.68
-7.34
-10.51
-13.19
-15.56
-17.93
-20.70
-24.26
-28.90
-34.59
-40.88
-46.83
-51.20
-52.80
-50.86
-45.34
-37.00
-27.12
-17.15
-8.23
-0.98
4.60
8.88
12.33
15.33
17.99
20.26
22.01
23.18
23.87
24.29
24.70
25.26
25.99
26.76
27.38
27.71
27.67
27.26
26.53
25.49
24.09
22.28
20.01
17.27
14.12
10.68
7.05
3.36
-0.29
-3.78
-7.03
-10.07
-12.94
-15.82
-18.94
-22.60
-27.04
-32.32
-38.20
-44.03
-48.79
-51.31
-50.63
-46.36
-38.90
-29.36
-19.21
-9.81
-1.98
4.07
8.65
12.25
15.26
17.84
19.96
21.56
22.70
23.54
24.30
25.13
26.05
26.98
27.77
28.36
28.77
29.11
29.43
29.69
29.69
29.16
27.83
25.59
22.58
19.13
15.68
12.59
9.99
7.72
5.45
2.81
-0.40
-4.12
-8.06
-11.84
-15.17
-18.00
-20.59
-23.36
-26.80
-31.20
-36.62
-42.64
-48.47
-52.99
-55.03
-53.72
-48.79
-40.74
-30.76
-20.33
-10.76
-2.81
3.41
8.29
12.28
15.66
18.40
20.31
21.27
21.45
21.29
21.31
21.95
23.29
25.10
26.90
28.25
28.91
28.90
28.44
27.81
27.12
26.27
25.03
23.15
20.59
17.53
14.38
11.53
9.20
7.34
5.64
3.72
1.30
-1.67
-4.96
-8.27
-11.29
-13.97
-16.45
-19.08
-22.24
-26.19
-31.02
-36.52
-42.15
-47.08
-50.27
-50.76
-47.90
-41.73
-32.96
-22.88
-12.92
-4.23
2.60
7.57
11.07
13.60
15.49
16.88
17.77
18.24
18.49
18.81
19.53
20.79
22.49
24.32
25.89
26.92
27.31
27.15
26.69
26.12
25.51
24.76
23.65
21.99
19.72
16.99
14.12
11.46
9.29
7.59
6.15
4.57
2.54
-0.01
-2.86
-5.66
-8.10
-10.11
-11.91
-13.89
-16.42
-19.79
-24.10
-29.26
-34.93
-40.42
-44.78
-46.87
-45.81
-41.27
-33.73
-24.31
-14.42
-5.30
2.25
7.96
11.90
14.33
15.53
15.75
15.27
14.39
13.42
12.61
12.21
12.37
13.14
14.47
16.18
18.00
19.60
20.73
21.19
20.91
19.94
18.41
16.45
14.25
11.96
9.66
7.40
5.17
2.93
0.66
-1.65
-3.96
-6.20
-8.32
-10.34
-12.33
-14.45
-16.90
-19.91
-23.57
-27.82
-32.28
-36.28
-38.90
-39.22
-36.65
-31.19
-23.46
-14.62
-5.92
1.67
7.65
12.01
15.01
16.89
17.76
17.59
16.39
14.41
12.13
10.15
9.07
9.15
10.30
12.06
13.84
15.08
15.48
15.09
14.12
12.89
11.59
10.25
8.71
6.81
4.40
1.50
-1.73
-5.06
-8.25
-11.16
-13.75
-16.13
-18.50
-21.10
-24.15
-27.82
-32.15
-36.97
-41.88
-46.15
-48.86
-49.08
-46.19
-40.15
-31.60
-21.74
-11.95
-3.38
3.33
8.18
11.54
13.95
15.76
17.10
17.91
18.14
17.86
17.35
16.98
17.11
17.90
19.29
20.96
22.47
23.41
23.58
22.98
21.79
20.25
18.48
16.45
14.04
11.14
7.80
4.20
0.61
-2.75
-5.84
-8.76
-11.63
-14.58
-17.62
-20.80
-24.22
-28.11
-32.64
-37.77
-43.07
-47.63
-50.29
-50.05
-46.38
-39.53
-30.44
-20.40
-10.78
-2.52
3.94
8.61
11.87
14.15
15.87
17.25
18.38
19.32
20.10
20.82
21.64
22.73
24.12
25.69
27.21
28.33
28.82
28.56
27.62
26.15
24.35
22.35
20.19
17.87
15.36
12.64
9.72
6.61
3.34
-0.01
-3.37
-6.62
-9.70
-12.61
-15.50
-18.64
-22.35
-26.92
-32.36
-38.28
-43.87
-48.01
-49.56
-47.75
-42.47
-34.34
-24.58
-14.61
-5.61
1.70
7.25
11.36
14.53
17.18
19.50
21.49
23.06
24.12
24.74
25.05
25.25
25.51
25.93
26.50
27.20
27.96
28.74
29.43
29.88
29.89
29.25
27.82
25.62
22.83
19.75
16.69
13.87
11.31
8.87
6.29
3.32
-0.15
-4.01
-7.98
-11.74
-15.05
-17.87
-20.54
-23.56
-27.49
-32.62
-38.71
-44.91
-49.88
-52.21
-50.91
-45.77
-37.46
-27.30
-16.83
-7.33
0.47
6.44
10.85
14.15
16.68
18.65
20.14
21.23
22.03
22.74
23.54
24.53
25.66
26.74
27.59
28.08
28.27
28.32
28.43
28.66
28.86
28.79
28.13
26.71
24.57
21.89
18.98
16.15
13.59
11.38
9.41
7.47
5.27
2.62
-0.55
-4.11
-7.76
-11.17
-14.16
-16.74
-19.17
-21.86
-25.21
-29.50
-34.74
-40.52
-46.10
-50.41
-52.30
-50.87
-45.85
-37.69
-27.53
-16.88
-7.08
0.95
6.98
11.24
14.16
16.15
17.44
18.14
18.39
18.46
18.71
19.47
20.88
22.76
24.72
26.34
27.39
27.88
28.07
28.22
28.47
28.74
28.71
28.09
26.65
24.41
21.61
18.62
15.80
13.42
11.53
9.98
8.51
6.79
4.64
2.00
-1.03
-4.24
-7.46
-10.52
-13.34
-15.93
-18.39
-20.90
-23.78
-27.36
-31.88
-37.24
-42.86
-47.71
-50.58
-50.44
-46.80
-39.94
-30.79
-20.67
-10.91
-2.48
4.11
8.81
11.85
13.57
14.33
14.43
14.15
13.79
13.67
14.06
15.06
16.59
18.37
20.04
21.30
22.05
22.34
22.38
22.30
22.09
21.59
20.59
18.97
16.78
14.30
11.92
9.92
8.35
7.03
5.54
3.52
0.80
-2.48
-5.95
-9.20
-11.96
-14.27
-16.38
-18.67
-21.51
-25.10
-29.49
-34.42
-39.32
-43.31
-45.38
-44.62
-40.60
-33.55
-24.42
-14.58
-5.38
2.27
8.07
12.22
15.17
17.29
18.68
19.29
19.07
18.16
16.97
16.04
15.84
16.54
18.00
19.81
21.59
23.08
24.16
24.82
24.98
24.45
23.06
20.76
17.77
14.51
11.42
8.84
6.79
5.07
3.30
1.17
-1.44
-4.45
-7.61
-10.65
-13.43
-15.98
-18.52
-21.35
-24.79
-29.02
-33.98
-39.31
-44.25
-47.82
-49.04
-47.19
-42.09
-34.29
-24.86
-15.16
-6.39
0.69
5.85
9.31
11.53
12.96
13.92
14.55
14.91
15.02
15.02
15.11
15.51
16.41
17.79
19.46
21.14
22.54
23.48
23.90
23.81
23.24
22.21
20.71
18.83
16.63
14.25
11.76
9.16
6.39
3.40
0.18
-3.16
-6.47
-9.60
-12.47
-15.12
-17.75
-20.65
-24.17
-28.58
-33.85
-39.54
-44.73
-48.21
-48.86
-46.05
-39.92
-31.38
-21.85
-12.72
-4.97
1.02
5.43
8.70
11.20
13.13
14.51
15.31
15.67
15.86
16.25
17.11
18.53
20.34
22.23
23.90
25.19
26.03
26.47
26.52
26.09
25.07
23.37
21.06
18.33
15.43
12.54
9.71
6.84
3.74
0.36
-3.22
-6.76
-9.97
-12.73
-15.15
-17.60
-20.53
-24.33
-29.13
-34.68
-40.36
-45.21
-48.13
-48.15
-44.74
-38.06
-28.96
-18.81
-9.06
-0.85
5.30
9.42
11.96
13.46
14.35
14.88
15.18
15.32
15.38
15.51
15.83
16.46
17.43
18.68
20.03
21.21
22.00
22.26
22.01
21.32
20.33
19.08
17.48
15.46
12.96
10.07
7.01
4.00
1.19
-1.39
-3.84
-6.27
-8.77
-11.39
-14.20
-17.31
-20.89
-25.08
-29.86
-34.89
-39.48
-42.63
-43.34
-40.93
-35.30
-27.01
-17.18
-7.15
1.93
9.31
14.81
18.63
21.13
22.62
23.27
23.18
22.50
21.57
20.82
20.67
21.33
22.74
24.52
26.17
27.21
27.35
26.54
24.91
22.74
20.32
17.91
15.66
13.57
11.56
9.48
7.19
4.63
1.81
-1.19
-4.27
-7.30
-10.22
-12.99
-15.66
-18.42
-21.50
-25.17
-29.61
-34.71
-40.00
-44.63
-47.53
-47.73
-44.72
-38.62
-30.24
-20.81
-11.61
-3.59
2.79
7.57
11.09
13.75
15.82
17.43
18.62
19.45
20.04
20.57
21.25
22.19
23.35
24.63
25.84
26.83
27.52
27.85
27.80
27.32
26.30
24.69
22.49
19.84
16.97
14.12
11.42
8.84
6.25
3.53
0.61
-2.42
-5.40
-8.24
-10.96
-13.68
-16.60
-19.90
-23.75
-28.25
-33.43
-39.03
-44.44
-48.65
-50.50
-49.05
-44.01
-35.96
-26.17
-16.19
-7.33
-0.26
5.02
8.96
12.06
14.67
16.86
18.51
19.56
20.13
20.53
21.17
22.32
24.00
25.92
27.65
28.81
29.25
29.09
28.61
28.07
27.55
26.91
25.89
24.24
21.96
19.26
16.49
13.99
11.86
9.94
7.88
5.33
2.18
-1.38
-4.95
-8.10
-10.63
-12.70
-14.73
-17.32
-20.92
-25.78
-31.71
-38.18
-44.30
-48.99
-51.18
-50.12
-45.60
-38.13
-28.80
-19.00
-9.98
-2.57
3.10
7.33
10.65
13.46
15.91
17.84
19.07
19.56
19.53
19.40
19.65
20.56
22.14
24.11
26.01
27.45
28.21
28.32
27.97
27.31
26.43
25.27
23.67
21.54
18.94
16.12
13.40
11.11
9.34
8.01
6.80
5.33
3.34
0.72
-2.35
-5.57
-8.58
-11.16
-13.35
-15.41
-17.75
-20.73
-24.59
-29.31
-34.59
-39.92
-44.55
-47.65
-48.37
-46.15
-40.89
-33.11
-23.87
-14.49
-6.14
0.46
5.18
8.36
10.48
11.99
13.05
13.73
14.07
14.25
14.57
15.34
16.72
18.65
20.82
22.81
24.31
25.18
25.52
25.53
25.39
25.18
24.76
23.94
22.52
20.44
17.83
14.99
12.28
9.99
8.21
6.79
5.40
3.63
1.24
-1.79
-5.24
-8.69
-11.74
-14.15
-15.98
-17.52
-19.26
-21.67
-25.12
-29.68
-35.03
-40.44
-44.84
-47.12
-46.37
-42.26
-35.20
-26.22
-16.70
-7.88
-0.62
4.82
8.60
11.16
12.91
14.09
14.87
15.29
15.48
15.61
15.91
16.58
17.68
19.12
20.66
22.06
23.06
23.60
23.71
23.50
23.05
22.37
21.43
20.13
18.46
16.44
14.21
11.97
9.87
8.03
6.40
4.82
3.08
0.98
-1.58
-4.53
-7.63
-10.64
-13.33
-15.64
-17.67
-19.64
-21.87
-24.69
-28.32
-32.81
-37.84
-42.73
-46.46
-48.00
-46.55
-41.93
-34.69
-25.94
-17.00
-9.01
-2.61
2.12
5.54
8.14
10.29
12.15
13.65
14.69
15.27
15.61
16.00
16.73
17.89
19.33
20.75
21.84
22.49
22.71
22.67
22.51
22.25
21.81
21.00
19.70
17.86
15.59
13.11
10.66
8.44
6.47
4.62
2.66
0.31
-2.53
-5.77
-9.13
-12.27
-14.90
-16.89
-18.34
-19.57
-21.01
-23.15
-26.33
-30.63
-35.71
-40.78
-44.75
-46.47
-45.14
-40.58
-33.39
-24.69
-15.84
-7.98
-1.68
2.96
6.23
8.52
10.09
11.02
11.35
11.21
10.85
10.66
10.98
11.96
13.53
15.41
17.24
18.73
19.77
20.42
20.82
21.09
21.24
21.15
20.63
19.52
17.78
15.50
12.95
10.46
8.27
6.45
4.85
3.14
1.05
-1.59
-4.65
-7.82
-10.75
-13.22
-15.23
-17.02
-18.96
-21.39
-24.59
-28.66
-33.47
-38.60
-43.26
-46.40
-46.96
-44.24
-38.23
-29.72
-20.10
-10.88
-3.18
2.51
6.38
8.95
10.76
12.10
13.02
13.47
13.46
13.21
13.07
13.33
14.16
15.47
17.01
18.49
19.70
20.58
21.17
21.57
21.81
21.79
21.36
20.37
18.74
16.55
14.05
11.50
9.16
7.16
5.43
3.79
1.96
-0.27
-2.96
-5.95
-8.99
-11.76
-14.12
-16.13
-18.05
-20.23
-23.01
-26.62
-31.08
-36.20
-41.48
-46.12
-49.14
-49.58
-46.87
-41.06
-32.93
-23.71
-14.69
-6.86
-0.66
3.95
7.27
9.69
11.48
12.82
13.86
14.70
15.49
16.31
17.25
18.36
19.65
21.10
22.58
23.89
24.84
25.30
25.30
24.97
24.46
23.79
22.83
21.40
19.35
16.75
13.88
11.11
8.74
6.80
5.04
3.07
0.58
-2.52
-5.98
-9.42
-12.43
-14.88
-16.86
-18.77
-21.03
-23.99
-27.86
-32.59
-37.91
-43.32
-48.12
-51.42
-52.35
-50.26
-45.01
-37.13
-27.68
-18.01
-9.31
-2.29
2.92
6.67
9.46
11.75
13.74
15.39
16.60
17.34
17.77
18.15
18.84
20.01
21.62
23.40
25.03
26.26
27.04
27.48
27.73
27.83
27.63
26.90
25.40
23.12
20.29
17.30
14.57
12.34
10.57
9.01
7.25
4.98
2.05
-1.43
-5.22
-8.98
-12.44
-15.45
-18.03
-20.36
-22.76
-25.66
-29.45
-34.31
-40.03
-45.93
-50.91
-53.73
-53.38
-49.47
-42.38
-33.18
-23.25
-13.89
-5.99
0.17
4.77
8.23
11.01
13.36
15.38
17.01
18.18
18.96
19.54
20.19
21.18
22.61
24.33
26.05
27.43
28.30
28.72
28.86
28.91
28.84
28.41
27.30
25.28
22.42
19.10
15.86
13.10
11.00
9.34
7.76
5.83
3.32
0.24
-3.18
-6.56
-9.59
-12.08
-14.13
-16.05
-18.32
-21.40
-25.58
-30.83
-36.79
-42.74
-47.72
-50.68
-50.75
-47.47
-41.02
-32.21
-22.32
-12.74
-4.55
1.71
6.14
9.19
11.41
13.17
14.61
15.69
16.38
16.80
17.23
17.96
19.16
20.77
22.51
24.07
25.24
25.98
26.40
26.63
26.67
26.39
25.57
24.05
21.85
19.22
16.54
14.19
12.36
11.02
9.82
8.36
6.24
3.34
-0.18
-3.94
-7.50
-10.54
-12.93
-14.84
-16.59
-18.61
-21.29
-24.90
-29.40
-34.39
-39.07
-42.36
-43.18
-40.82
-35.19
-26.93
-17.22
-7.39
1.41
8.49
13.67
17.15
19.29
20.37
20.61
20.21
19.36
18.42
17.75
17.63
18.19
19.27
20.57
21.75
22.59
23.04
23.21
23.25
23.19
22.95
22.33
21.17
19.47
17.39
15.22
13.17
11.29
9.41
7.24
4.55
1.26
-2.45
-6.21
-9.68
-12.63
-15.09
-17.33
-19.79
-22.95
-27.15
-32.44
-38.39
-44.13
-48.41
-50.03
-48.14
-42.69
-34.43
-24.71
-15.01
-6.53
0.13
5.01
8.50
11.11
13.19
14.93
16.40
17.63
18.69
19.66
20.61
21.54
22.43
23.24
23.98
24.69
25.47
26.36
27.25
27.93
28.07
27.37
25.70
23.15
20.03
16.73
13.57
10.76
8.30
6.04
3.78
1.30
-1.55
-4.77
-8.25
-11.74
-15.01
-17.92
-20.60
-23.40
-26.82
-31.23
-36.62
-42.45
-47.68
-51.05
-51.47
-48.42
-42.11
-33.50
-23.88
-14.58
-6.52
-0.11
4.72
8.34
11.18
13.55
15.59
17.38
18.90
20.21
21.41
22.61
23.88
25.21
26.50
27.62
28.53
29.18
29.66
30.01
30.20
30.08
29.46
28.20
26.29
23.89
21.27
18.70
16.30
14.07
11.85
9.42
6.56
3.17
-0.70
-4.84
-8.91
-12.60
-15.75
-18.42
-20.90
-23.69
-27.25
-31.83
-37.25
-42.80
-47.38
-49.72
-48.89
-44.57
-37.26
-28.12
-18.60
-9.96
-2.95
2.32
6.22
9.27
11.88
14.17
16.08
17.45
18.30
18.83
19.43
20.45
22.02
23.94
25.79
27.09
27.60
27.39
26.80
26.21
25.83
25.53
25.00
23.87
21.98
19.47
16.66
13.96
11.62
9.67
7.89
5.97
3.60
0.65
-2.84
-6.62
-10.34
-13.67
-16.43
-18.63
-20.50
-22.45
-24.91
-28.22
-32.48
-37.42
-42.41
-46.50
-48.64
-47.97
-44.11
-37.31
-28.44
-18.72
-9.37
-1.32
4.99
9.54
12.59
14.48
15.53
15.97
16.01
15.90
15.86
16.12
16.80
17.87
19.18
20.56
21.83
22.94
23.86
24.57
25.03
25.07
24.56
23.34
21.42
18.91
16.03
13.07
10.26
7.80
5.68
3.75
1.77
-0.51
-3.23
-6.35
-9.62
-12.80
-15.70
-18.39
-21.14
-24.33
-28.28
-32.98
-38.05
-42.65
-45.71
-46.24
-43.67
-38.07
-30.17
-21.11
-12.11
-4.10
2.44
7.43
11.05
13.55
15.13
15.98
16.32
16.39
16.47
16.79
17.46
18.47
19.74
21.12
22.53
23.86
25.03
25.92
26.40
26.37
25.70
24.36
22.39
19.97
17.34
14.75
12.36
10.14
7.91
5.42
2.47
-0.94
-4.63
-8.30
-11.69
-14.69
-17.38
-20.03
-22.98
-26.60
-31.10
-36.43
-42.10
-47.21
-50.53
-50.93
-47.76
-41.15
-32.03
-21.89
-12.28
-4.33
1.53
5.50
8.21
10.29
12.19
14.02
15.70
17.13
18.28
19.26
20.24
21.32
22.55
23.85
25.10
26.22
27.19
28.00
28.61
28.91
28.64
27.54
25.48
22.52
19.01
15.47
12.33
9.80
7.75
5.75
3.37
0.36
-3.22
-7.04
-10.67
-13.82
-16.45
-18.72
-20.98
-23.61
-26.96
-31.28
-36.51
-42.18
-47.37
-50.86
-51.51
-48.64
-42.36
-33.60
-23.71
-14.09
-5.75
0.86
5.79
9.36
12.03
14.13
15.87
17.39
18.78
20.12
21.49
22.99
24.60
26.18
27.53
28.45
28.87
28.91
28.83
28.82
28.89
28.79
28.15
26.65
24.21
21.12
17.87
14.99
12.76
11.15
9.76
8.06
5.61
2.25
-1.82
-6.14
-10.23
-13.72
-16.56
-18.97
-21.35
-24.15
-27.78
-32.43
-37.94
-43.74
-48.84
-52.03
-52.27
-49.01
-42.51
-33.72
-24.02
-14.79
-6.95
-0.87
3.64
6.99
9.60
11.71
13.36
14.52
15.24
15.66
16.04
16.67
17.71
19.15
20.77
22.28
23.41
24.07
24.35
24.44
24.48
24.47
24.21
23.43
21.90
19.63
16.84
13.96
11.35
9.25
7.61
6.16
4.57
2.57
0.09
-2.77
-5.74
-8.54
-11.02
-13.22
-15.39
-17.92
-21.13
-25.17
-29.97
-35.15
-40.09
-44.00
-46.06
-45.57
-42.19
-36.03
-27.79
-18.56
-9.50
-1.57
4.72
9.32
12.51
14.62
15.90
16.49
16.49
16.09
15.63
15.47
15.89
16.96
18.48
20.14
21.60
22.64
23.22
23.40
23.26
22.82
22.01
20.69
18.80
16.41
13.71
11.00
8.53
6.39
4.48
2.51
0.18
-2.70
-6.10
-9.76
-13.27
-16.29
-18.69
-20.68
-22.72
-25.38
-29.07
-33.80
-39.01
-43.71
-46.69
-46.93
-43.92
-37.84
-29.53
-20.18
-11.01
-2.95
3.51
8.35
11.81
14.23
15.87
16.94
17.54
17.80
17.92
18.13
18.66
19.61
20.90
22.33
23.65
24.68
25.38
25.83
26.13
26.21
25.89
24.85
22.93
20.16
16.83
13.43
10.38
7.90
5.87
3.96
1.76
-0.97
-4.20
-7.67
-11.01
-13.97
-16.51
-18.88
-21.50
-24.84
-29.16
-34.46
-40.35
-45.99
-50.33
-52.23
-50.87
-46.02
-38.18
-28.51
-18.48
-9.40
-2.07
3.36
7.29
10.28
12.81
15.05
16.96
18.42
19.39
20.02
20.54
21.21
22.15
23.33
24.59
25.73
26.60
27.15
27.46
27.62
27.63
27.32
26.41
24.65
21.97
18.60
15.02
11.75
9.05
6.83
4.68
2.10
-1.19
-5.11
-9.25
-13.09
-16.23
-18.64
-20.64
-22.80
-25.76
-29.94
-35.41
-41.70
-47.86
-52.65
-54.81
-53.52
-48.63
-40.76
-31.11
-21.03
-11.73
-3.96
2.04
6.41
9.50
11.72
13.41
14.79
16.00
17.09
18.10
19.08
20.08
21.18
22.37
23.58
24.70
25.60
26.27
26.76
27.12
27.33
27.22
26.54
25.10
22.86
20.02
16.98
14.16
11.76
9.72
7.69
5.24
2.07
-1.79
-6.00
-10.08
-13.63
-16.48
-18.80
-20.97
-23.49
-26.82
-31.20
-36.57
-42.47
-48.05
-52.13
-53.51
-51.41
-45.74
-37.20
-27.12
-17.02
-8.12
-1.09
4.05
7.70
10.38
12.57
14.52
16.28
17.85
19.20
20.37
21.37
22.27
23.08
23.79
24.37
24.82
25.19
25.53
25.89
26.19
26.20
25.64
24.22
21.87
18.74
15.28
11.93
9.05
6.68
4.61
2.46
-0.08
-3.09
-6.45
-9.86
-13.03
-15.79
-18.19
-20.51
-23.13
-26.42
-30.62
-35.65
-41.04
-45.98
-49.38
-50.19
-47.72
-41.89
-33.38
-23.41
-13.43
-4.63
2.33
7.34
10.76
13.03
14.47
15.19
15.17
14.49
13.43
12.50
12.21
12.92
14.65
17.06
19.61
21.72
23.01
23.39
22.98
22.11
21.03
19.89
18.69
17.26
15.42
13.06
10.17
6.89
3.44
0.06
-3.13
-6.08
-8.89
-11.71
-14.73
-18.16
-22.17
-26.84
-32.00
-37.12
-41.32
-43.48
-42.67
-38.44
-31.14
-21.83
-11.96
-2.90
4.46
9.88
13.64
16.20
17.96
19.05
19.48
19.26
18.61
17.97
17.87
18.63
20.19
22.14
23.83
24.77
24.74
23.98
22.89
21.89
21.10
20.32
19.16
17.26
14.49
10.95
6.97
2.84
-1.18
-4.97
-8.45
-11.60
-14.46
-17.23
-20.27
-24.03
-28.87
-34.83
-41.38
-47.53
-51.93
-53.36
-51.10
-45.20
-36.48
-26.26
-15.99
-6.81
0.64
6.30
10.48
13.66
16.26
18.51
20.43
21.93
22.94
23.51
23.83
24.18
24.78
25.71
26.84
27.94
28.74
29.06
28.87
28.20
27.12
25.64
23.74
21.37
18.51
15.23
11.62
7.89
4.22
0.80
-2.33
-5.19
-8.00
-10.98
-14.39
-18.40
-23.09
-28.45
-34.34
-40.46
-46.19
-50.63
-52.75
-51.65
-46.98
-39.18
-29.41
-19.17
-9.87
-2.28
3.45
7.78
11.34
14.60
17.76
20.71
23.19
25.02
26.17
26.83
27.32
27.94
28.85
30.01
31.20
32.18
32.76
32.90
32.66
32.09
31.14
29.68
27.62
24.99
22.01
18.96
16.07
13.38
10.72
7.84
4.52
0.80
-3.14
-6.97
-10.44
-13.49
-16.32
-19.38
-23.15
-28.02
-34.00
-40.62
-46.94
-51.70
-53.67
-52.02
-46.68
-38.36
-28.36
-18.16
-8.96
-1.41
4.44
8.99
12.72
15.94
18.73
20.95
22.44
23.24
23.63
24.04
24.84
26.19
27.91
29.63
30.97
31.73
31.96
31.88
31.71
31.49
31.06
30.10
28.38
25.84
22.72
19.44
16.41
13.92
11.97
10.36
8.71
6.68
4.07
0.90
-2.60
-6.12
-9.33
-12.02
-14.22
-16.17
-18.25
-20.91
-24.51
-29.15
-34.69
-40.63
-46.22
-50.47
-52.37
-51.12
-46.45
-38.76
-29.15
-19.07
-9.89
-2.45
3.07
7.04
10.03
12.40
14.23
15.41
15.88
15.83
15.71
16.00
17.00
18.66
20.65
22.54
24.02
25.02
25.69
26.20
26.61
26.83
26.60
25.67
23.93
21.46
18.61
15.79
13.35
11.46
9.95
8.46
6.53
3.88
0.51
-3.25
-6.90
-10.00
-12.38
-14.20
-15.91
-18.06
-21.13
-25.36
-30.60
-36.29
-41.50
-45.06
-45.98
-43.64
-38.16
-30.29
-21.28
-12.38
-4.58
1.63
6.21
9.43
11.67
13.20
14.23
14.86
15.21
15.44
15.76
16.35
17.33
18.67
20.18
21.66
22.87
23.71
24.20
24.39
24.29
23.78
22.67
20.72
17.93
14.54
11.05
8.03
5.90
4.67
4.00
3.26
1.84
-0.56
-3.82
-7.47
-10.91
-13.75
-15.94
-17.82
-19.89
-22.66
-26.44
-31.24
-36.75
-42.28
-46.88
-49.45
-49.06
-45.27
-38.34
-29.19
-19.23
-9.85
-2.07
3.69
7.63
10.29
12.32
14.13
15.86
17.39
18.54
19.23
19.56
19.81
20.27
21.09
22.19
23.31
24.18
24.70
24.94
25.09
25.22
25.25
24.89
23.88
22.09
19.66
16.93
14.28
11.96
9.96
8.11
6.12
3.77
0.98
-2.17
-5.46
-8.67
-11.59
-14.12
-16.26
-18.14
-20.06
-22.41
-25.63
-29.99
-35.42
-41.31
-46.59
-49.94
-50.25
-46.98
-40.43
-31.68
-22.13
-13.12
-5.47
0.53
5.08
8.56
11.31
13.55
15.33
16.67
17.62
18.31
18.92
19.65
20.64
21.92
23.38
24.80
25.98
26.77
27.16
27.22
27.07
26.78
26.31
25.53
24.24
22.33
19.83
16.89
13.84
10.98
8.51
6.46
4.68
2.92
0.93
-1.45
-4.25
-7.36
-10.63
-13.89
-17.00
-19.88
-22.53
-25.12
-27.92
-31.27
-35.49
-40.60
-46.20
-51.41
-55.02
-55.83
-53.09
-46.85
-37.99
-27.95
-18.24
-9.98
-3.63
0.93
4.19
6.70
8.84
10.80
12.61
14.24
15.68
16.97
18.18
19.40
20.67
21.95
23.17
24.26
25.16
25.87
26.44
26.83
26.94
26.59
25.62
23.95
21.65
18.90
15.98
13.11
10.42
7.98
5.75
3.68
1.68
-0.37
-2.57
-5.02
-7.72
-10.58
-13.42
-16.02
-18.29
-20.32
-22.42
-25.01
-28.50
-33.07
-38.58
-44.42
-49.70
-53.34
-54.36
-52.21
-46.93
-39.24
-30.28
-21.34
-13.42
-7.03
-2.15
1.56
4.50
6.88
8.76
10.09
10.90
11.35
11.78
12.49
13.69
15.35
17.26
19.13
20.75
21.98
22.82
23.27
23.35
23.01
22.23
20.99
19.34
17.36
15.15
12.88
10.69
8.74
7.08
5.65
4.25
2.58
0.43
-2.25
-5.26
-8.26
-10.93
-13.08
-14.79
-16.34
-18.10
-20.43
-23.56
-27.56
-32.28
-37.32
-42.01
-45.42
-46.58
-44.80
-39.91
-32.41
-23.40
-14.17
-5.81
1.04
6.28
10.11
12.82
14.57
15.45
15.52
15.01
14.31
13.92
14.23
15.40
17.31
19.57
21.75
23.46
24.56
25.07
25.19
25.08
24.77
24.14
22.98
21.13
18.57
15.49
12.25
9.26
6.81
4.93
3.43
1.93
0.04
-2.45
-5.53
-8.90
-12.17
-15.05
-17.47
-19.60
-21.84
-24.59
-28.21
-32.80
-38.15
-43.67
-48.39
-51.18
-51.06
-47.54
-40.86
-31.97
-22.21
-12.91
-4.97
1.29
6.02
9.60
12.36
14.47
15.96
16.84
17.29
17.58
18.07
19.02
20.55
22.49
24.55
26.39
27.74
28.57
28.94
28.98
28.74
28.17
27.11
25.44
23.10
20.23
17.08
13.96
11.15
8.78
6.80
4.93
2.82
0.17
-3.10
-6.78
-10.48
-13.79
-16.47
-18.64
-20.68
-23.15
-26.54
-31.06
-36.60
-42.62
-48.23
-52.36
-53.97
-52.38
-47.47
-39.79
-30.40
-20.57
-11.45
-3.78
2.20
6.66
10.00
12.58
14.68
16.39
17.73
18.73
19.53
20.35
21.40
22.78
24.37
25.94
27.23
28.11
28.63
28.97
29.25
29.45
29.37
28.74
27.35
25.24
22.62
19.82
17.15
14.76
12.63
10.59
8.43
5.91
2.91
-0.55
-4.29
-8.02
-11.45
-14.42
-17.02
-19.53
-22.41
-26.08
-30.81
-36.56
-42.91
-49.11
-54.08
-56.70
-56.09
-51.92
-44.60
-35.18
-25.05
-15.53
-7.48
-1.18
3.58
7.22
10.11
12.45
14.27
15.55
16.38
16.95
17.54
18.39
19.63
21.23
23.03
24.83
26.42
27.70
28.58
29.09
29.25
29.03
28.37
27.13
25.21
22.65
19.65
16.53
13.63
11.11
8.93
6.84
4.52
1.79
-1.37
-4.75
-8.09
-11.09
-13.65
-15.77
-17.66
-19.63
-22.06
-25.30
-29.50
-34.54
-39.89
-44.68
-47.82
-48.32
-45.59
-39.63
-31.11
-21.20
-11.22
-2.32
4.79
9.87
13.15
15.03
15.97
16.30
16.20
15.82
15.30
14.90
14.93
15.64
17.07
19.09
21.35
23.49
25.22
26.40
27.04
27.12
26.65
25.55
23.77
21.37
18.51
15.50
12.63
10.06
7.75
5.49
2.97
-0.03
-3.51
-7.23
-10.81
-13.93
-16.45
-18.57
-20.76
-23.57
-27.41
-32.31
-37.79
-42.92
-46.49
-47.39
-44.99
-39.36
-31.28
-21.94
-12.56
-4.08
3.02
8.68
13.03
16.29
18.66
20.28
21.35
21.98
22.37
22.64
22.93
23.35
24.01
24.99
26.23
27.63
28.95
30.01
30.63
30.70
30.16
28.96
27.09
24.58
21.58
18.35
15.19
12.34
9.87
7.63
5.32
2.63
-0.57
-4.16
-7.83
-11.21
-14.12
-16.63
-19.09
-21.97
-25.71
-30.51
-36.24
-42.32
-47.78
-51.45
-52.26
-49.58
-43.51
-34.87
-24.98
-15.20
-6.58
0.41
5.79
9.91
13.13
15.73
17.79
19.31
20.31
20.94
21.44
22.09
23.11
24.51
26.13
27.66
28.83
29.52
29.80
29.84
29.76
29.54
28.94
27.67
25.52
22.56
19.12
15.67
12.62
10.07
7.79
5.31
2.26
-1.47
-5.61
-9.60
-12.91
-15.28
-16.92
-18.33
-20.23
-23.20
-27.52
-33.05
-39.26
-45.27
-50.00
-52.41
-51.67
-47.51
-40.28
-30.96
-20.89
-11.38
-3.37
2.78
7.29
10.68
13.45
15.84
17.88
19.42
20.42
21.02
21.60
22.52
23.95
25.78
27.65
29.12
29.92
30.09
29.94
29.81
29.88
30.03
29.89
29.03
27.24
24.61
21.53
18.49
15.88
13.80
12.09
10.41
8.40
5.84
2.67
-0.98
-4.83
-8.51
-11.78
-14.54
-17.01
-19.64
-22.98
-27.48
-33.22
-39.89
-46.72
-52.66
-56.59
-57.56
-55.08
-49.24
-40.74
-30.75
-20.60
-11.43
-3.90
1.82
6.02
9.11
11.47
13.31
14.70
15.72
16.47
17.14
17.93
19.01
20.40
22.01
23.65
25.10
26.25
27.05
27.55
27.80
27.78
27.38
26.40
24.68
22.21
19.21
16.08
13.28
11.11
9.60
8.49
7.30
5.59
3.14
0.02
-3.44
-6.81
-9.79
-12.27
-14.44
-16.64
-19.31
-22.77
-27.15
-32.28
-37.63
-42.36
-45.51
-46.16
-43.77
-38.36
-30.49
-21.18
-11.61
-2.82
4.49
10.02
13.85
16.22
17.43
17.77
17.52
16.97
16.45
16.30
16.69
17.68
19.10
20.68
22.18
23.47
24.57
25.52
26.31
26.81
26.74
25.85
24.01
21.30
18.00
14.54
11.33
8.67
6.61
4.98
3.44
1.63
-0.70
-3.56
-6.74
-9.91
-12.79
-15.27
-17.44
-19.57
-22.04
-25.27
-29.55
-34.88
-40.80
-46.37
-50.33
-51.47
-49.04
-43.08
-34.40
-24.34
-14.32
-5.40
1.87
7.45
11.61
14.69
16.97
18.63
19.82
20.66
21.33
21.98
22.77
23.76
24.92
26.12
27.23
28.10
28.69
29.00
29.06
28.91
28.48
27.63
26.18
23.99
21.09
17.72
14.28
11.17
8.62
6.60
4.84
2.95
0.64
-2.23
-5.54
-9.04
-12.46
-15.58
-18.36
-20.96
-23.74
-27.15
-31.58
-37.13
-43.41
-49.53
-54.18
-56.10
-54.44
-49.11
-40.84
-30.98
-21.02
-12.16
-5.01
0.42
4.52
7.79
10.58
12.99
14.99
16.56
17.74
18.74
19.77
21.00
22.48
24.09
25.64
26.91
27.79
28.22
28.28
28.09
27.70
27.08
26.11
24.68
22.73
20.36
17.77
15.21
12.88
10.86
9.07
7.28
5.24
2.72
-0.33
-3.85
-7.56
-11.16
-14.41
-17.23
-19.81
-22.50
-25.71
-29.79
-34.83
-40.53
-46.24
-51.02
-53.84
-53.82
-50.54
-44.21
-35.66
-26.11
-16.83
-8.80
-2.48
2.22
5.75
8.66
11.32
13.84
16.06
17.77
18.88
19.50
19.96
20.64
21.79
23.39
25.21
26.88
28.13
28.79
28.90
28.56
27.86
26.79
25.33
23.43
21.08
18.36
15.43
12.50
9.80
7.46
5.47
3.67
1.77
-0.50
-3.29
-6.51
-9.89
-13.06
-15.78
-18.02
-20.00
-22.12
-24.78
-28.27
-32.68
-37.82
-43.22
-48.09
-51.53
-52.63
-50.75
-45.76
-38.15
-28.91
-19.27
-10.35
-2.92
2.70
6.61
9.11
10.59
11.39
11.75
11.90
12.01
12.31
13.00
14.24
15.99
18.11
20.32
22.34
23.97
25.16
25.95
26.39
26.49
26.14
25.25
23.73
21.63
19.13
16.51
14.04
11.87
9.99
8.15
6.08
3.56
0.59
-2.64
-5.81
-8.65
-11.11
-13.33
-15.66
-18.51
-22.24
-26.96
-32.46
-38.13
-43.04
-46.07
-46.31
-43.29
-37.23
-28.98
-19.78
-10.83
-3.03
3.23
7.96
11.43
13.90
15.58
16.60
17.09
17.23
17.27
17.45
17.93
18.74
19.82
20.98
22.13
23.18
24.11
24.94
25.61
26.01
25.91
25.12
23.51
21.09
18.11
14.93
11.92
9.32
7.10
4.98
2.61
-0.28
-3.65
-7.24
-10.60
-13.44
-15.77
-17.93
-20.51
-24.05
-28.86
-34.80
-41.30
-47.37
-51.83
-53.59
-51.94
-46.88
-39.08
-29.77
-20.33
-11.87
-4.95
0.42
4.60
8.00
10.85
13.20
14.96
16.10
16.76
17.20
17.75
18.58
19.74
21.07
22.35
23.40
24.22
24.86
25.42
25.89
26.09
25.72
24.50
22.37
19.48
16.27
13.18
10.53
8.37
6.46
4.41
1.90
-1.24
-4.89
-8.73
-12.39
-15.61
-18.33
-20.83
-23.58
-27.10
-31.69
-37.31
-43.40
-48.98
-52.87
-53.95
-51.59
-45.80
-37.30
-27.35
-17.38
-8.57
-1.57
3.56
7.28
10.17
12.69
15.05
17.21
19.08
20.61
21.92
23.14
24.34
25.47
26.41
27.02
27.30
27.39
27.51
27.79
28.08
28.09
27.40
25.73
23.11
19.84
16.43
13.34
10.79
8.72
6.80
4.67
2.10
-0.93
-4.25
-7.59
-10.74
-13.62
-16.31
-19.04
-22.08
-25.73
-30.17
-35.44
-41.30
-47.18
-52.13
-55.01
-54.83
-51.05
-43.91
-34.39
-23.93
-13.99
-5.60
0.83
5.48
8.85
11.45
13.58
15.30
16.55
17.35
17.86
18.38
19.22
20.53
22.24
24.09
25.75
26.99
27.75
28.10
28.12
27.78
26.94
25.41
23.12
20.22
17.05
14.05
11.50
9.44
7.66
5.80
3.59
0.94
-1.99
-4.93
-7.63
-10.02
-12.27
-14.71
-17.74
-21.65
-26.51
-32.04
-37.57
-42.11
-44.61
-44.19
-40.47
-33.75
-24.93
-15.27
-6.04
1.90
8.12
12.72
16.00
18.27
19.71
20.42
20.51
20.17
19.78
19.71
20.24
21.38
22.93
24.56
26.00
27.12
27.90
28.36
28.40
27.84
26.46
24.18
21.09
17.55
13.94
10.56
7.49
4.59
1.63
-1.51
-4.79
-7.99
-10.86
-13.31
-15.47
-17.73
-20.54
-24.29
-29.15
-34.94
-41.14
-46.88
-51.12
-52.82
-51.23
-46.18
-38.16
-28.31
-18.00
-8.50
-0.65
5.31
9.61
12.72
15.14
17.19
19.04
20.68
22.08
23.22
24.17
25.04
25.96
27.01
28.13
29.13
29.81
30.01
29.72
28.99
27.89
26.48
24.70
22.50
19.93
17.10
14.20
11.38
8.69
6.04
3.27
0.24
-3.08
-6.60
-10.15
-13.59
-16.85
-20.07
-23.59
-27.83
-33.10
-39.35
-45.98
-51.87
-55.66
-56.14
-52.74
-45.71
-36.05
-25.26
-14.78
-5.71
1.47
6.84
10.84
13.99
16.70
19.13
21.21
22.85
24.01
24.84
25.57
26.42
27.47
28.68
29.90
30.98
31.87
32.51
32.86
32.77
32.06
30.56
28.26
25.30
22.00
18.68
15.58
12.77
10.07
7.26
4.10
0.52
-3.34
-7.28
-11.03
-14.50
-17.73
-20.98
-24.56
-28.80
-33.85
-39.53
-45.26
-50.04
-52.72
-52.30
-48.34
-41.20
-31.94
-22.02
-12.79
-5.10
0.86
5.41
9.08
12.31
15.25
17.76
19.59
20.63
20.94
20.85
20.74
20.92
21.54
22.52
23.65
24.74
25.64
26.18
26.27
25.83
24.82
23.28
21.35
19.15
16.74
14.07
11.03
7.59
3.85
0.07
-3.43
-6.42
-8.89
-11.06
-13.29
-16.05
-19.66
-24.32
-29.92
-36.02
-41.86
-46.41
-48.66
-47.88
-43.89
-37.13
-28.58
-19.44
-10.79
-3.38
2.53
7.03
10.42
13.01
15.02
16.56
17.66
18.37
18.84
19.30
20.00
21.08
22.54
24.13
25.53
26.44
26.73
26.47
25.82
24.92
23.76
22.14
19.80
16.58
12.54
8.03
3.58
-0.36
-3.53
-6.07
-8.37
-10.97
-14.34
-18.69
-23.95
-29.67
-35.14
-39.44
-41.71
-41.24
-37.81
-31.74
-23.85
-15.25
-6.97
0.26
6.16
10.79
14.37
17.05
18.89
19.90
20.17
19.94
19.58
19.45
19.76
20.52
21.52
22.45
23.03
23.05
22.52
21.52
20.20
18.69
16.99
14.97
12.45
9.30
5.58
1.52
-2.50
-6.14
-9.23
-11.83
-14.19
-16.68
-19.59
-23.10
-27.23
-31.82
-36.54
-40.75
-43.66
-44.40
-42.40
-37.61
-30.53
-22.16
-13.59
-5.78
0.72
5.70
9.25
11.48
12.52
12.51
11.65
10.33
9.07
8.39
8.66
9.93
11.96
14.24
16.27
17.66
18.29
18.29
17.90
17.31
16.55
15.43
13.70
11.19
7.97
4.37
0.86
-2.17
-4.62
-6.73
-8.98
-11.87
-15.67
-20.33
-25.45
-30.37
-34.27
-36.33
-35.92
-32.74
-26.99
-19.41
-11.08
-3.11
3.69
8.95
12.74
15.29
16.81
17.36
16.96
15.74
14.14
12.79
12.32
13.07
14.89
17.18
19.17
20.24
20.15
19.14
17.69
16.27
15.08
13.98
12.59
10.51
7.53
3.80
-0.25
-4.08
-7.27
-9.75
-11.78
-13.89
-16.67
-20.49
-25.44
-31.20
-37.10
-42.18
-45.35
-45.70
-42.71
-36.56
-28.03
-18.45
-9.15
-1.19
5.01
9.58
13.01
15.77
18.12
20.04
21.37
21.99
21.98
21.65
21.34
21.37
21.85
22.65
23.48
24.05
24.17
23.78
22.99
21.96
20.78
19.43
17.77
15.56
12.59
8.84
4.47
-0.14
-4.57
-8.42
-11.56
-14.13
-16.47
-19.08
-22.39
-26.64
-31.77
-37.38
-42.69
-46.71
-48.41
-46.99
-42.23
-34.60
-25.19
-15.40
-6.47
0.82
6.35
10.49
13.75
16.52
18.89
20.76
22.03
22.79
23.31
23.95
24.92
26.20
27.54
28.66
29.37
29.63
29.51
29.05
28.20
26.84
24.87
22.29
19.34
16.32
13.54
11.11
8.95
6.78
4.30
1.32
-2.16
-5.93
-9.63
-12.93
-15.66
-17.93
-20.10
-22.71
-26.26
-31.01
-36.78
-42.90
-48.28
-51.69
-52.07
-48.87
-42.28
-33.21
-22.97
-12.94
-4.15
2.90
8.26
12.28
15.39
17.85
19.78
21.16
22.01
22.47
22.86
23.50
24.62
26.21
28.00
29.59
30.65
31.03
30.86
30.42
29.93
29.45
28.81
27.74
26.01
23.54
20.46
17.07
13.71
10.63
7.96
5.63
3.46
1.17
-1.53
-4.72
-8.33
-12.07
-15.55
-18.50
-20.90
-23.01
-25.34
-28.42
-32.60
-37.89
-43.89
-49.81
-54.60
-57.22
-56.83
-53.03
-46.01
-36.55
-25.83
-15.17
-5.63
2.13
7.96
12.03
14.71
16.37
17.32
17.86
18.26
18.79
19.74
21.31
23.57
26.39
29.52
32.53
35.07
36.83
37.71
37.76
37.09
35.80
33.86
31.20
27.76
23.64
19.16
14.70
10.58
6.86
3.35
-0.28
-4.33
-8.84
-13.58
-18.17
-22.23
-25.49
-27.94
-29.75
-31.22
-32.76
-34.77
-37.59
-41.37
-45.90
-50.51
-54.20
-55.75
-54.16
-49.02
-40.69
-30.25
-19.17
-8.86
-0.23
6.42
11.32
14.96
17.76
19.95
21.58
22.70
23.49
24.30
25.54
27.46
30.07
33.11
36.11
38.65
40.41
41.26
41.23
40.38
38.79
36.49
33.53
30.01
26.07
21.91
17.65
13.37
9.03
4.57
-0.07
-4.85
-9.65
-14.25
-18.45
-22.18
-25.52
-28.84
-32.64
-37.39
-43.27
-49.92
-56.45
-61.54
-63.90
-62.59
-57.46
-49.13
-38.90
-28.23
-18.42
-10.30
-4.11
0.32
3.35
5.40
6.76
7.65
8.23
8.70
9.26
10.13
11.42
13.14
15.19
17.35
19.40
21.05
22.13
22.48
22.08
20.99
19.34
17.29
14.95
12.41
9.61
6.50
3.03
-0.70
-4.51
-8.14
-11.39
-14.22
-16.74
-19.22
-21.96
-25.27
-29.37
-34.29
-39.81
-45.33
-49.89
-52.35
-51.67
-47.37
-39.71
-29.77
-19.04
-9.00
-0.63
5.72
10.32
13.65
16.15
17.97
19.08
19.43
19.11
18.50
18.10
18.38
19.51
21.34
23.44
25.30
26.54
26.99
26.68
25.75
24.34
22.53
20.33
17.76
14.83
11.57
7.99
4.10
-0.09
-4.54
-9.07
-13.45
-17.45
-20.96
-24.09
-27.16
-30.61
-34.82
-39.95
-45.74
-51.51
-56.24
-58.82
-58.35
-54.38
-47.17
-37.58
-26.93
-16.60
-7.68
-0.70
4.38
8.03
10.83
13.22
15.34
17.10
18.40
19.27
19.97
20.90
22.42
24.66
27.36
30.05
32.15
33.25
33.22
32.22
30.65
28.96
27.50
26.40
25.57
24.69
23.38
21.29
18.23
14.23
9.51
4.43
-0.60
-5.22
-9.28
-12.96
-16.76
-21.30
-27.02
-33.78
-40.72
-46.38
-49.25
-48.31
-43.47
-35.57
-26.05
-16.37
-7.65
-0.42
5.16
9.16
11.67
12.73
12.49
11.27
9.64
8.28
7.83
8.62
10.55
13.17
15.80
17.88
19.10
19.53
19.45
19.20
18.93
18.58
17.90
16.57
14.41
11.45
7.95
4.37
1.14
-1.44
-3.37
-4.87
-6.38
-8.41
-11.34
-15.27
-19.91
-24.61
-28.47
-30.53
-30.06
-26.76
-20.91
-13.22
-4.73
3.54
10.78
16.49
20.46
22.69
23.28
22.38
20.32
17.62
14.98
13.15
12.68
13.73
15.94
18.58
20.83
22.13
22.30
21.54
20.26
18.76
17.12
15.19
12.76
9.70
6.12
2.33
-1.26
-4.36
-6.86
-8.93
-10.88
-13.13
-16.00
-19.72
-24.26
-29.35
-34.42
-38.69
-41.22
-41.21
-38.21
-32.32
-24.22
-15.06
-6.09
1.66
7.62
11.78
14.48
16.18
17.21
17.67
17.56
16.93
16.06
15.43
15.54
16.64
18.60
20.89
22.88
24.06
24.26
23.70
22.70
21.54
20.23
18.59
16.32
13.25
9.46
5.24
1.06
-2.65
-5.63
-7.95
-9.93
-12.10
-15.01
-19.00
-24.07
-29.75
-35.26
-39.58
-41.75
-41.09
-37.41
-31.03
-22.74
-13.66
-4.86
2.82
8.98
13.69
17.28
20.12
22.45
24.29
25.58
26.30
26.60
26.75
27.07
27.71
28.70
29.83
30.85
31.48
31.60
31.16
30.25
28.99
27.44
25.59
23.32
20.48
17.02
13.08
8.96
5.07
1.70
-1.07
-3.37
-5.54
-7.94
-10.90
-14.62
-19.20
-24.55
-30.33
-35.88
-40.31
-42.65
-42.16
-38.58
-32.31
-24.21
-15.40
-6.88
0.65
6.88
11.83
15.74
18.86
21.46
23.68
25.62
27.29
28.67
29.82
30.83
31.78
32.73
33.64
34.38
34.77
34.73
34.23
33.31
32.00
30.24
27.97
25.14
21.87
18.35
14.91
11.84
9.23
6.98
4.83
2.45
-0.38
-3.68
-7.25
-10.75
-13.85
-16.41
-18.59
-20.77
-23.53
-27.34
-32.41
-38.47
-44.75
-50.10
-53.28
-53.32
-49.84
-43.19
-34.40
-24.83
-15.77
-8.06
-1.94
2.86
6.81
10.38
13.72
16.74
19.20
20.94
22.03
22.74
23.46
24.45
25.77
27.27
28.72
29.87
30.66
31.09
31.25
31.13
30.63
29.64
28.09
26.10
23.94
21.88
20.09
18.47
16.78
14.74
12.25
9.47
6.77
4.45
2.62
1.05
-0.66
-2.85
-5.63
-8.81
-12.05
-15.08
-17.78
-20.31
-22.97
-26.03
-29.67
-33.93
-38.71
-43.71
-48.43
-52.12
-53.92
-53.05
-49.17
-42.54
-34.03
-24.85
-16.21
-8.91
-3.17
1.23
4.74
7.74
10.43
12.79
14.73
16.22
17.35
18.33
19.40
20.71
22.25
23.85
25.27
26.30
26.84
26.97
26.79
26.44
25.92
25.12
23.92
22.28
20.28
18.13
16.06
14.21
12.56
11.00
9.35
7.52
5.50
3.38
1.33
-0.51
-2.08
-3.46
-4.83
-6.46
-8.58
-11.27
-14.40
-17.68
-20.76
-23.33
-25.36
-27.02
-28.74
-30.99
-34.13
-38.17
-42.69
-46.88
-49.69
-50.16
-47.72
-42.39
-34.88
-26.32
-17.91
-10.58
-4.78
-0.50
2.55
4.76
6.41
7.61
8.44
8.97
9.35
9.81
10.60
11.94
13.86
16.24
18.76
21.05
22.77
23.78
24.08
23.88
23.33
22.58
21.67
20.60
19.40
18.11
16.74
15.25
13.54
11.53
9.28
6.97
4.82
3.01
1.50
0.09
-1.49
-3.47
-5.87
-8.61
-11.49
-14.33
-17.02
-19.53
-21.95
-24.44
-27.26
-30.62
-34.57
-38.87
-42.87
-45.68
-46.38
-44.34
-39.51
-32.50
-24.31
-16.09
-8.78
-2.89
1.52
4.72
7.09
8.95
10.46
11.64
12.47
13.01
13.45
14.06
15.10
16.62
18.48
20.34
21.90
22.92
23.38
23.38
23.06
22.48
21.66
20.60
19.33
17.88
16.31
14.63
12.86
11.03
9.20
7.45
5.80
4.17
2.37
0.23
-2.36
-5.33
-8.48
-11.50
-14.13
-16.30
-18.09
-19.79
-21.74
-24.26
-27.58
-31.70
-36.43
-41.28
-45.52
-48.26
-48.66
-46.15
-40.74
-33.02
-24.11
-15.31
-7.66
-1.75
2.42
5.25
7.35
9.13
10.77
12.19
13.24
13.89
14.29
14.76
15.61
16.99
18.76
20.60
22.16
23.22
23.78
23.99
24.04
23.95
23.61
22.82
21.42
19.42
17.01
14.49
12.16
10.18
8.58
7.18
5.77
4.12
2.15
-0.16
-2.72
-5.43
-8.22
-11.04
-13.86
-16.62
-19.27
-21.80
-24.33
-27.10
-30.42
-34.51
-39.34
-44.47
-49.04
-52.04
-52.51
-49.92
-44.35
-36.49
-27.45
-18.38
-10.22
-3.47
1.79
5.75
8.67
10.80
12.29
13.29
13.93
14.44
15.03
15.88
17.09
18.63
20.36
22.09
23.63
24.85
25.71
26.21
26.38
26.23
25.73
24.80
23.39
21.46
19.05
16.28
13.36
10.52
7.90
5.55
3.34
1.09
-1.42
-4.26
-7.35
-10.48
-13.41
-15.98
-18.19
-20.16
-22.13
-24.41
-27.24
-30.83
-35.24
-40.23
-45.25
-49.37
-51.55
-50.94
-47.21
-40.76
-32.54
-23.80
-15.67
-8.80
-3.38
0.78
3.96
6.39
8.17
9.36
10.08
10.54
11.03
11.80
12.95
14.40
15.94
17.31
18.32
18.96
19.37
19.77
20.36
21.10
21.77
21.99
21.42
19.95
17.72
15.14
12.66
10.60
9.02
7.70
6.28
4.40
1.90
-1.16
-4.46
-7.64
-10.41
-12.66
-14.55
-16.38
-18.57
-21.48
-25.32
-30.01
-35.17
-40.03
-43.63
-44.98
-43.41
-38.78
-31.57
-22.79
-13.64
-5.25
1.67
6.88
10.49
12.85
14.27
15.00
15.23
15.15
15.00
15.07
15.54
16.47
17.68
18.96
20.08
20.99
21.76
22.52
23.28
23.90
24.13
23.69
22.46
20.49
18.04
15.43
12.97
10.83
9.00
7.33
5.54
3.40
0.77
-2.30
-5.61
-8.88
-11.96
-14.83
-17.65
-20.76
-24.50
-29.09
-34.43
-40.08
-45.14
-48.52
-49.17
-46.45
-40.42
-31.89
-22.20
-12.77
-4.70
1.55
6.11
9.48
12.19
14.57
16.67
18.35
19.51
20.19
20.62
21.14
22.00
23.26
24.77
26.28
27.56
28.55
29.29
29.84
30.19
30.15
29.48
28.02
25.79
23.07
20.20
17.48
15.02
12.68
10.19
7.27
3.80
-0.13
-4.24
-8.21
-11.72
-14.58
-16.86
-18.83
-20.98
-23.88
-27.99
-33.45
-39.81
-46.06
-50.84
-52.80
-51.13
-45.81
-37.65
-27.98
-18.18
-9.35
-2.01
3.75
8.20
11.67
14.41
16.57
18.24
19.47
20.32
20.94
21.53
22.31
23.46
25.00
26.79
28.58
30.10
31.19
31.87
32.22
32.26
31.93
31.02
29.34
26.81
23.62
20.15
16.85
14.06
11.86
10.08
8.35
6.31
3.68
0.44
-3.24
-7.06
-10.74
-14.09
-17.12
-20.06
-23.25
-27.07
-31.78
-37.30
-43.16
-48.48
-52.17
-53.16
-50.84
-45.23
-37.07
-27.59
-18.14
-9.82
-3.16
1.88
5.72
8.88
11.74
14.43
16.88
18.96
20.61
21.99
23.32
24.85
26.66
28.67
30.63
32.25
33.36
33.89
33.97
33.78
33.44
32.99
32.29
31.17
29.48
27.19
24.45
21.52
18.69
16.17
14.03
12.13
10.24
8.08
5.42
2.16
-1.62
-5.68
-9.71
-13.37
-16.50
-19.15
-21.64
-24.46
-28.11
-32.89
-38.67
-44.87
-50.48
-54.33
-55.38
-53.07
-47.48
-39.35
-29.81
-20.11
-11.24
-3.77
2.19
6.84
10.46
13.31
15.53
17.20
18.36
19.14
19.76
20.48
21.53
23.01
24.81
26.67
28.27
29.40
30.03
30.26
30.26
30.10
29.64
28.65
26.88
24.25
20.95
17.34
13.88
10.88
8.52
6.70
5.14
3.53
1.54
-0.95
-3.91
-7.13
-10.29
-13.15
-15.58
-17.76
-20.05
-22.87
-26.55
-31.06
-35.97
-40.45
-43.46
-44.08
-41.74
-36.48
-28.91
-20.06
-11.11
-3.00
3.68
8.80
12.53
15.16
16.96
18.06
18.51
18.42
17.99
17.56
17.53
18.20
19.66
21.73
24.05
26.19
27.82
28.82
29.23
29.13
28.58
27.52
25.80
23.37
20.25
16.74
13.19
9.99
7.32
5.11
3.13
1.05
-1.31
-3.98
-6.79
-9.56
-12.11
-14.40
-16.53
-18.73
-21.31
-24.63
-28.97
-34.39
-40.51
-46.44
-50.94
-52.74
-51.02
-45.75
-37.71
-28.26
-18.84
-10.52
-3.80
1.42
5.51
8.90
11.84
14.36
16.42
17.97
19.07
19.94
20.82
21.83
22.98
24.07
24.87
25.27
25.34
25.28
25.31
25.46
25.54
25.22
24.16
22.22
19.54
16.52
13.61
11.20
9.46
8.30
7.39
6.29
4.57
2.00
-1.34
-5.13
-8.89
-12.24
-15.04
-17.48
-19.95
-22.91
-26.71
-31.48
-37.04
-42.90
-48.19
-51.88
-52.97
-50.85
-45.58
-37.93
-29.12
-20.47
-12.89
-6.76
-1.87
2.21
5.93
9.48
12.80
15.68
17.91
19.47
20.50
21.30
22.18
23.34
24.78
26.32
27.72
28.78
29.44
29.71
29.64
29.18
28.26
26.73
24.57
21.82
18.69
15.52
12.64
10.34
8.73
7.68
6.89
5.91
4.39
2.16
-0.68
-3.81
-6.88
-9.68
-12.21
-14.69
-17.41
-20.64
-24.56
-29.22
-34.51
-40.12
-45.40
-49.46
-51.31
-50.21
-45.92
-38.96
-30.40
-21.59
-13.66
-7.18
-2.17
1.74
4.99
7.84
10.30
12.27
13.68
14.63
15.42
16.40
17.84
19.78
22.00
24.13
25.80
26.84
27.31
27.45
27.49
27.51
27.43
26.98
25.90
24.04
21.51
18.59
15.62
12.90
10.55
8.54
6.68
4.75
2.56
0.03
-2.80
-5.81
-8.83
-11.72
-14.38
-16.83
-19.14
-21.52
-24.24
-27.60
-31.82
-36.81
-42.07
-46.65
-49.42
-49.35
-46.00
-39.65
-31.30
-22.24
-13.65
-6.30
-0.39
4.20
7.72
10.37
12.26
13.54
14.41
15.15
16.03
17.19
18.65
20.26
21.84
23.28
24.55
25.67
26.68
27.58
28.29
28.67
28.60
28.01
26.87
25.24
23.22
20.94
18.52
16.12
13.80
11.59
9.47
7.35
5.14
2.73
0.10
-2.76
-5.78
-8.86
-11.86
-14.64
-17.17
-19.56
-22.04
-24.97
-28.71
-33.45
-39.07
-45.01
-50.34
-53.90
-54.69
-52.17
-46.49
-38.49
-29.40
-20.47
-12.60
-6.16
-1.06
3.01
6.40
9.29
11.72
13.65
15.11
16.20
17.16
18.25
19.65
21.35
23.20
24.92
26.26
27.13
27.59
27.83
27.98
28.04
27.87
27.30
26.20
24.55
22.45
20.02
17.39
14.67
11.99
9.51
7.36
5.55
3.95
2.29
0.29
-2.21
-5.13
-8.26
-11.27
-13.97
-16.30
-18.39
-20.55
-23.10
-26.38
-30.59
-35.72
-41.42
-47.00
-51.43
-53.62
-52.77
-48.60
-41.59
-32.80
-23.57
-15.09
-8.14
-2.91
0.89
3.78
6.29
8.71
11.13
13.41
15.39
16.97
18.23
19.42
20.80
22.55
24.63
26.78
28.66
29.99
30.70
30.84
30.59
30.08
29.34
28.29
26.84
25.01
22.91
20.68
18.44
16.25
14.06
11.88
9.72
7.64
5.66
3.68
1.54
-0.98
-3.95
-7.28
-10.74
-14.01
-16.89
-19.32
-21.50
-23.72
-26.40
-29.86
-34.25
-39.45
-44.89
-49.71
-52.82
-53.25
-50.43
-44.50
-36.28
-27.06
-18.19
-10.62
-4.72
-0.28
3.18
6.16
8.87
11.27
13.25
14.72
15.81
16.75
17.79
19.07
20.57
22.21
23.86
25.46
26.95
28.25
29.25
29.78
29.71
29.01
27.71
25.91
23.75
21.33
18.78
16.23
13.82
11.65
9.76
8.06
6.44
4.78
2.96
0.93
-1.34
-3.88
-6.69
-9.69
-12.71
-15.56
-18.11
-20.42
-22.73
-25.45
-28.97
-33.46
-38.72
-44.13
-48.73
-51.49
-51.57
-48.58
-42.72
-34.75
-25.74
-16.86
-8.98
-2.60
2.19
5.58
7.93
9.53
10.61
11.36
11.94
12.57
13.48
14.82
16.63
18.70
20.71
22.31
23.31
23.74
23.79
23.70
23.60
23.45
23.07
22.26
20.92
19.10
16.95
14.69
12.52
10.59
9.03
7.82
6.84
5.82
4.48
2.56
0.02
-2.99
-6.14
-9.10
-11.64
-13.79
-15.78
-17.99
-20.79
-24.42
-28.89
-33.92
-38.92
-43.06
-45.46
-45.33
-42.32
-36.53
-28.68
-19.82
-11.09
-3.43
2.65
7.10
10.18
12.26
13.69
14.65
15.22
15.55
15.81
16.27
17.19
18.63
20.43
22.32
23.95
25.14
25.90
26.37
26.71
26.92
26.86
26.25
24.91
22.79
20.08
17.10
14.18
11.51
9.10
6.82
4.43
1.75
-1.30
-4.63
-7.97
-11.03
-13.57
-15.57
-17.23
-18.97
-21.31
-24.64
-29.12
-34.54
-40.29
-45.46
-49.00
-49.95
-47.75
-42.42
-34.66
-25.64
-16.66
-8.79
-2.56
2.05
5.40
7.98
10.14
12.05
13.72
15.19
16.51
17.83
19.27
20.89
22.62
24.29
25.71
26.73
27.34
27.64
27.76
27.79
27.70
27.31
26.40
24.84
22.67
20.09
17.40
14.84
12.50
10.26
7.90
5.20
2.08
-1.37
-4.95
-8.42
-11.60
-14.45
-17.10
-19.80
-22.88
-26.61
-31.17
-36.50
-42.14
-47.35
-51.09
-52.40
-50.63
-45.76
-38.38
-29.58
-20.57
-12.33
-5.43
0.04
4.29
7.63
10.33
12.60
14.57
16.32
17.91
19.41
20.82
22.17
23.46
24.70
25.90
27.00
27.93
28.64
29.06
29.21
29.06
28.57
27.60
26.01
23.72
20.82
17.59
14.41
11.64
9.42
7.59
5.79
3.63
0.89
-2.39
-5.86
-9.12
-11.87
-14.09
-16.10
-18.40
-21.56
-25.93
-31.55
-37.97
-44.33
-49.47
-52.18
-51.61
-47.52
-40.41
-31.41
-21.89
-13.07
-5.70
0.06
4.47
7.99
11.00
13.70
16.06
18.02
19.52
20.65
21.60
22.62
23.86
25.30
26.77
28.01
28.86
29.34
29.59
29.83
30.09
30.23
29.89
28.76
26.65
23.71
20.29
16.89
13.90
11.49
9.56
7.81
5.86
3.44
0.44
-3.01
-6.62
-10.06
-13.12
-15.78
-18.28
-20.98
-24.28
-28.45
-33.51
-39.19
-44.87
-49.67
-52.62
-52.90
-50.14
-44.50
-36.69
-27.75
-18.79
-10.66
-3.82
1.61
5.73
8.76
10.91
12.36
13.33
14.04
14.68
15.44
16.44
17.70
19.20
20.83
22.47
23.99
25.29
26.32
27.09
27.58
27.75
27.47
26.60
25.04
22.86
20.27
17.63
15.23
13.18
11.35
9.41
7.06
4.13
0.75
-2.78
-6.09
-8.94
-11.31
-13.40
-15.57
-18.20
-21.56
-25.75
-30.62
-35.66
-40.10
-42.96
-43.34
-40.71
-35.12
-27.26
-18.27
-9.41
-1.69
4.36
8.72
11.72
13.81
15.32
16.39
17.06
17.37
17.45
17.59
18.07
19.07
20.52
22.15
23.59
24.59
25.12
25.36
25.51
25.65
25.65
25.23
24.08
22.15
19.58
16.74
13.96
11.41
9.01
6.54
3.73
0.49
-3.06
-6.66
-10.01
-12.94
-15.50
-17.91
-20.54
-23.74
-27.77
-32.61
-37.94
-43.07
-47.05
-48.93
-47.98
-44.05
-37.58
-29.54
-21.04
-13.00
-5.95
-0.01
4.94
9.07
12.40
14.90
16.52
17.41
17.82
18.13
18.64
19.52
20.75
22.17
23.56
24.73
25.62
26.24
26.64
26.81
26.68
26.11
24.98
23.27
21.06
18.56
15.96
13.40
10.84
8.16
5.20
1.87
-1.75
-5.43
-8.90
-11.95
-14.52
-16.74
-18.94
-21.53
-24.90
-29.27
-34.52
-40.09
-45.03
-48.20
-48.60
-45.73
-39.85
-31.85
-22.96
-14.33
-6.75
-0.50
4.50
8.50
11.73
14.33
16.39
18.00
19.28
20.37
21.40
22.43
23.51
24.62
25.73
26.79
27.72
28.45
28.91
29.04
28.75
27.98
26.64
24.74
22.32
19.55
16.62
13.75
11.05
8.54
6.07
3.46
0.58
-2.60
-5.94
-9.21
-12.23
-14.94
-17.48
-20.17
-23.41
-27.59
-32.81
-38.78
-44.73
-49.48
-51.78
-50.72
-46.07
-38.44
-29.13
-19.63
-11.20
-4.51
0.49
4.25
7.33
10.12
12.72
15.00
16.82
18.12
19.04
19.79
20.64
21.69
22.89
24.06
24.96
25.52
25.81
26.05
26.46
27.07
27.68
27.82
27.05
25.13
22.17
18.67
15.23
12.33
10.10
8.31
6.48
4.17
1.16
-2.47
-6.37
-10.13
-13.41
-16.11
-18.39
-20.62
-23.24
-26.65
-31.02
-36.23
-41.81
-46.97
-50.73
-52.13
-50.54
-45.86
-38.65
-29.97
-21.07
-13.04
-6.51
-1.60
1.96
4.61
6.72
8.51
10.02
11.22
12.09
12.74
13.37
14.21
15.47
17.19
19.23
21.30
23.07
24.35
25.09
25.34
25.19
24.64
23.62
22.07
20.04
17.74
15.43
13.32
11.47
9.69
7.74
5.34
2.45
-0.81
-4.08
-7.03
-9.40
-11.23
-12.81
-14.66
-17.30
-21.08
-25.95
-31.40
-36.55
-40.33
-41.79
-40.38
-36.06
-29.41
-21.35
-12.97
-5.21
1.32
6.42
10.17
12.86
14.77
16.08
16.90
17.35
17.54
17.72
18.11
18.88
20.07
21.55
23.09
24.46
25.52
26.25
26.65
26.73
26.39
25.45
23.78
21.36
18.40
15.24
12.25
9.64
7.46
5.51
3.49
1.19
-1.49
-4.45
-7.50
-10.41
-13.07
-15.53
-17.97
-20.71
-24.10
-28.38
-33.52
-39.10
-44.24
-47.82
-48.76
-46.40
-40.82
-32.81
-23.64
-14.66
-6.84
-0.61
4.14
7.80
10.77
13.33
15.50
17.22
18.48
19.39
20.17
21.04
22.15
23.43
24.70
25.73
26.41
26.79
27.03
27.26
27.45
27.41
26.83
25.48
23.33
20.59
17.63
14.78
12.27
10.06
7.98
5.70
3.02
-0.18
-3.77
-7.47
-10.95
-13.96
-16.45
-18.60
-20.80
-23.51
-27.07
-31.62
-36.92
-42.36
-47.00
-49.81
-49.89
-46.84
-40.87
-32.80
-23.81
-15.07
-7.40
-1.14
3.82
7.79
11.08
13.85
16.11
17.83
19.02
19.80
20.39
20.99
21.73
22.67
23.74
24.79
25.65
26.19
26.33
26.10
25.56
24.78
23.73
22.31
20.40
17.97
15.19
12.37
9.86
7.89
6.36
4.93
3.16
0.76
-2.26
-5.57
-8.69
-11.28
-13.26
-14.90
-16.70
-19.21
-22.82
-27.63
-33.32
-39.21
-44.29
-47.52
-48.01
-45.39
-39.87
-32.24
-23.61
-15.10
-7.56
-1.37
3.48
7.25
10.26
12.74
14.77
16.33
17.41
18.12
18.61
19.10
19.73
20.53
21.41
22.27
23.00
23.55
23.93
24.10
23.98
23.44
22.34
20.64
18.38
15.74
12.94
10.27
7.90
5.87
4.09
2.32
0.30
-2.16
-5.08
-8.27
-11.37
-14.06
-16.17
-17.84
-19.49
-21.68
-24.86
-29.15
-34.18
-39.13
-42.95
-44.68
-43.70
-39.94
-33.83
-26.18
-17.96
-10.05
-3.11
2.50
6.73
9.72
11.66
12.76
13.21
13.15
12.82
12.48
12.44
12.96
14.13
15.82
17.78
19.66
21.18
22.18
22.61
22.48
21.84
20.70
19.13
17.21
15.11
12.98
10.93
8.98
6.98
4.75
2.14
-0.83
-3.98
-7.03
-9.71
-11.94
-13.87
-15.86
-18.35
-21.67
-25.87
-30.65
-35.30
-38.91
-40.56
-39.59
-35.84
-29.63
-21.79
-13.37
-5.44
1.22
6.21
9.57
11.67
12.97
13.88
14.60
15.15
15.43
15.41
15.24
15.15
15.47
16.33
17.68
19.27
20.74
21.79
22.28
22.16
21.53
20.46
19.02
17.25
15.16
12.83
10.30
7.67
4.97
2.19
-0.69
-3.66
-6.62
-9.46
-12.00
-14.22
-16.27
-18.49
-21.29
-25.01
-29.71
-35.00
-40.11
-44.02
-45.71
-44.53
-40.35
-33.69
-25.55
-17.13
-9.46
-3.17
1.61
5.17
7.91
10.20
12.17
13.77
14.92
15.60
15.94
16.20
16.65
17.44
18.56
19.89
21.21
22.34
23.16
23.65
23.79
23.57
22.91
21.74
20.00
17.69
14.94
11.94
8.91
6.03
3.36
0.85
-1.59
-4.03
-6.51
-8.95
-11.33
-13.68
-16.21
-19.22
-23.00
-27.65
-32.93
-38.23
-42.63
-45.13
-44.95
-41.79
-35.98
-28.36
-20.10
-12.25
-5.57
-0.33
3.60
6.55
8.87
10.77
12.39
13.78
15.01
16.15
17.30
18.50
19.71
20.83
21.76
22.44
22.84
23.03
23.05
22.93
22.63
22.03
21.04
19.61
17.76
15.58
13.24
10.85
8.47
6.06
3.54
0.84
-2.01
-4.87
-7.55
-9.91
-11.98
-13.97
-16.21
-19.11
-22.90
-27.59
-32.89
-38.17
-42.57
-45.15
-45.09
-42.01
-36.12
-28.24
-19.53
-11.19
-4.07
1.50
5.66
8.77
11.08
12.67
13.46
13.42
12.74
11.90
11.47
11.91
13.34
15.55
18.10
20.49
22.41
23.72
24.44
24.65
24.39
23.64
22.35
20.54
18.32
15.92
13.58
11.47
9.57
7.72
5.62
3.05
0.01
-3.28
-6.45
-9.16
-11.25
-12.87
-14.38
-16.23
-18.81
-22.33
-26.71
-31.57
-36.24
-39.79
-41.27
-39.95
-35.59
-28.62
-20.03
-11.06
-2.89
3.75
8.65
12.01
14.25
15.70
16.56
16.90
16.80
16.47
16.22
16.39
17.15
18.48
20.11
21.67
22.89
23.60
23.86
23.76
23.37
22.69
21.63
20.07
18.03
15.67
13.26
11.06
9.21
7.63
6.03
4.12
1.68
-1.26
-4.46
-7.60
-10.40
-12.75
-14.80
-16.78
-19.02
-21.79
-25.31
-29.66
-34.65
-39.73
-44.01
-46.39
-45.90
-42.13
-35.40
-26.76
-17.60
-9.22
-2.42
2.62
6.13
8.60
10.37
11.62
12.41
12.80
13.00
13.25
13.83
14.86
16.29
17.92
19.54
20.98
22.21
23.30
24.33
25.28
25.99
26.22
25.73
24.36
22.17
19.40
16.41
13.59
11.19
9.22
7.48
5.63
3.35
0.53
-2.74
-6.14
-9.35
-12.15
-14.57
-16.81
-19.25
-22.25
-26.07
-30.77
-36.06
-41.35
-45.67
-47.99
-47.46
-43.76
-37.25
-28.85
-19.79
-11.22
-3.87
1.97
6.42
9.75
12.23
14.03
15.25
15.98
16.36
16.60
16.96
17.60
18.63
20.01
21.59
23.18
24.57
25.62
26.24
26.42
26.22
25.66
24.74
23.38
21.49
19.04
16.14
13.08
10.25
7.99
6.36
5.14
3.87
2.10
-0.42
-3.58
-6.98
-10.16
-12.79
-14.85
-16.56
-18.33
-20.55
-23.52
-27.41
-32.15
-37.46
-42.67
-46.85
-48.92
-48.03
-43.90
-36.94
-28.23
-19.08
-10.70
-3.82
1.36
5.08
7.77
9.80
11.39
12.64
13.62
14.43
15.25
16.26
17.63
19.34
21.26
23.17
24.83
26.08
26.89
27.33
27.52
27.50
27.25
26.65
25.54
23.79
21.40
18.57
15.56
12.76
10.42
8.62
7.22
5.92
4.38
2.30
-0.39
-3.56
-6.92
-10.20
-13.18
-15.84
-18.27
-20.69
-23.34
-26.46
-30.24
-34.76
-39.85
-44.96
-49.27
-51.78
-51.59
-48.29
-42.06
-33.74
-24.49
-15.55
-7.85
-1.84
2.46
5.37
7.32
8.67
9.63
10.31
10.80
11.26
11.91
12.94
14.40
16.19
18.04
19.67
20.90
21.68
22.08
22.21
22.10
21.75
21.08
20.05
18.64
16.92
15.03
13.12
11.31
9.68
8.20
6.73
5.12
3.23
1.04
-1.35
-3.77
-6.05
-8.12
-10.02
-11.93
-14.05
-16.54
-19.56
-23.17
-27.35
-31.87
-36.18
-39.48
-40.83
-39.49
-35.24
-28.50
-20.23
-11.66
-3.85
2.55
7.40
10.91
13.42
15.15
16.21
16.60
16.38
15.73
14.99
14.55
14.72
15.61
17.08
18.84
20.53
21.87
22.75
23.14
23.10
22.64
21.72
20.31
18.44
16.21
13.85
11.62
9.69
8.04
6.51
4.76
2.48
-0.44
-3.85
-7.35
-10.49
-12.93
-14.71
-16.20
-18.00
-20.71
-24.73
-30.05
-36.18
-42.19
-46.90
-49.14
-48.13
-43.72
-36.46
-27.48
-18.14
-9.57
-2.54
2.74
6.45
8.97
10.74
12.11
13.35
14.56
15.74
16.82
17.74
18.54
19.35
20.37
21.72
23.34
25.01
26.46
27.41
27.73
27.35
26.30
24.63
22.40
19.71
16.75
13.76
10.98
8.54
6.35
4.14
1.63
-1.39
-4.88
-8.61
-12.24
-15.50
-18.32
-20.90
-23.62
-26.98
-31.28
-36.52
-42.21
-47.40
-50.91
-51.65
-49.03
-43.13
-34.76
-25.19
-15.73
-7.41
-0.75
4.25
7.88
10.56
12.60
14.22
15.50
16.50
17.33
18.11
18.99
20.02
21.18
22.35
23.44
24.44
25.37
26.27
27.08
27.62
27.64
26.92
25.37
23.10
20.39
17.60
15.01
12.72
10.60
8.37
5.73
2.53
-1.16
-5.04
-8.78
-12.15
-15.16
-18.02
-21.07
-24.69
-29.08
-34.21
-39.74
-45.03
-49.16
-51.16
-50.23
-46.02
-38.87
-29.69
-19.77
-10.35
-2.33
3.93
8.56
11.90
14.32
16.09
17.32
18.11
18.65
19.16
19.86
20.87
22.07
23.23
24.11
24.59
24.71
24.64
24.55
24.47
24.28
23.72
22.59
20.78
18.45
15.88
13.43
11.34
9.68
8.29
6.81
4.93
2.39
-0.78
-4.35
-7.93
-11.21
-14.03
-16.52
-19.02
-21.97
-25.74
-30.49
-36.06
-41.84
-46.93
-50.25
-50.86
-48.24
-42.51
-34.38
-24.97
-15.45
-6.76
0.59
6.43
10.86
14.04
16.10
17.21
17.57
17.52
17.43
17.70
18.54
19.98
21.83
23.82
25.64
27.10
28.12
28.72
28.94
28.79
28.19
27.04
25.33
23.13
20.64
18.11
15.68
13.35
10.95
8.27
5.15
1.68
-1.87
-5.14
-7.87
-10.08
-12.02
-14.15
-16.90
-20.59
-25.27
-30.65
-36.06
-40.59
-43.13
-42.80
-39.17
-32.52
-23.79
-14.32
-5.44
1.94
7.49
11.38
14.08
16.01
17.40
18.25
18.53
18.33
17.93
17.77
18.24
19.51
21.46
23.75
25.96
27.80
29.17
30.10
30.61
30.67
30.13
28.89
26.93
24.37
21.43
18.36
15.36
12.47
9.65
6.74
3.63
0.27
-3.29
-6.87
-10.32
-13.54
-16.62
-19.87
-23.65
-28.31
-33.89
-40.02
-45.91
-50.48
-52.67
-51.74
-47.51
-40.50
-31.71
-22.35
-13.54
-5.97
0.13
4.93
8.80
12.07
14.90
17.31
19.25
20.73
21.85
22.81
23.80
24.92
26.14
27.33
28.37
29.19
29.80
30.24
30.49
30.44
29.89
28.65
26.63
23.92
20.77
17.52
14.48
11.83
9.49
7.22
4.69
1.69
-1.79
-5.51
-9.10
-12.22
-14.78
-16.97
-19.19
-21.94
-25.59
-30.27
-35.84
-41.79
-47.31
-51.35
-52.88
-51.13
-45.93
-37.85
-28.07
-18.03
-9.01
-1.72
3.73
7.73
10.80
13.34
15.52
17.32
18.71
19.77
20.68
21.69
22.92
24.34
25.76
26.96
27.80
28.27
28.50
28.64
28.77
28.84
28.64
27.94
26.49
24.21
21.22
17.87
14.60
11.88
9.91
8.63
7.65
6.44
4.59
1.94
-1.33
-4.88
-8.34
-11.49
-14.31
-16.93
-19.60
-22.60
-26.21
-30.67
-36.04
-42.03
-47.94
-52.69
-55.07
-54.18
-49.74
-42.26
-32.93
-23.18
-14.30
-7.03
-1.51
2.64
5.93
8.78
11.34
13.52
15.17
16.24
16.89
17.41
18.09
19.10
20.37
21.74
23.04
24.23
25.35
26.46
27.54
28.41
28.80
28.48
27.37
25.55
23.25
20.71
18.09
15.45
12.84
10.29
7.94
5.86
4.06
2.41
0.65
-1.45
-4.02
-6.97
-10.07
-13.05
-15.71
-18.06
-20.22
-22.49
-25.20
-28.60
-32.80
-37.64
-42.55
-46.65
-48.87
-48.30
-44.48
-37.68
-28.81
-19.14
-9.93
-2.07
4.07
8.58
11.79
14.00
15.39
16.01
15.95
15.39
14.73
14.47
15.02
16.54
18.83
21.39
23.69
25.32
26.21
26.51
26.45
26.19
25.68
24.74
23.20
21.05
18.44
15.63
12.88
10.38
8.20
6.33
4.71
3.21
1.66
-0.15
-2.39
-5.08
-8.08
-11.09
-13.82
-16.09
-17.96
-19.74
-21.90
-24.85
-28.84
-33.77
-39.16
-44.15
-47.69
-48.77
-46.71
-41.47
-33.62
-24.31
-14.87
-6.42
0.40
5.49
9.14
11.77
13.74
15.22
16.29
16.95
17.33
17.61
18.04
18.85
20.14
21.88
23.86
25.78
27.30
28.21
28.44
28.13
27.51
26.74
25.85
24.68
23.03
20.76
17.99
15.03
12.27
9.98
8.16
6.55
4.74
2.41
-0.51
-3.83
-7.20
-10.28
-12.84
-14.95
-16.82
-18.84
-21.45
-25.01
-29.72
-35.47
-41.76
-47.73
-52.29
-54.41
-53.38
-49.04
-41.87
-32.81
-23.07
-13.78
-5.75
0.62
5.38
8.88
11.56
13.81
15.81
17.52
18.79
19.56
19.94
20.25
20.85
21.95
23.51
25.21
26.65
27.53
27.82
27.68
27.38
27.08
26.72
26.01
24.64
22.45
19.53
16.24
13.06
10.38
8.29
6.57
4.80
2.61
-0.19
-3.46
-6.90
-10.19
-13.17
-15.88
-18.49
-21.16
-23.99
-27.09
-30.66
-34.90
-39.94
-45.51
-50.83
-54.66
-55.75
-53.26
-47.15
-38.20
-27.79
-17.39
-8.14
-0.66
4.93
8.85
11.45
13.10
14.10
14.71
15.17
15.63
16.26
17.16
18.37
19.82
21.37
22.85
24.08
24.98
25.58
25.93
26.11
26.07
25.68
24.75
23.13
20.77
17.82
14.57
11.35
8.46
6.01
3.93
2.01
-0.04
-2.42
-5.17
-8.17
-11.17
-13.93
-16.27
-18.19
-19.87
-21.66
-23.98
-27.26
-31.73
-37.29
-43.42
-49.18
-53.42
-55.06
-53.41
-48.43
-40.73
-31.39
-21.68
-12.65
-4.94
1.23
5.98
9.49
11.90
13.32
13.86
13.74
13.33
13.11
13.47
14.64
16.56
18.94
21.37
23.52
25.18
26.30
26.89
27.00
26.59
25.59
23.96
21.71
19.04
16.21
13.54
11.27
9.49
8.09
6.79
5.29
3.33
0.83
-2.10
-5.17
-8.10
-10.72
-13.03
-15.26
-17.74
-20.82
-24.72
-29.42
-34.58
-39.51
-43.28
-44.86
-43.53
-39.06
-31.94
-23.18
-14.02
-5.56
1.55
7.14
11.30
14.25
16.10
16.90
16.79
16.07
15.22
14.73
14.97
15.99
17.61
19.49
21.32
22.93
24.28
25.40
26.27
26.71
26.49
25.41
23.42
20.71
17.64
14.61
11.88
9.48
7.22
4.83
2.15
-0.89
-4.16
-7.53
-10.82
-13.94
-16.85
-19.63
-22.46
-25.60
-29.36
-33.92
-39.19
-44.72
-49.60
-52.75
-53.14
-50.20
-44.03
-35.44
-25.66
-16.03
-7.52
-0.55
4.97
9.39
13.06
16.12
18.49
20.09
20.95
21.35
21.74
22.52
23.88
25.70
27.67
29.42
30.75
31.64
32.24
32.63
32.77
32.43
31.29
29.18
26.17
22.59
18.96
15.76
13.25
11.31
9.54
7.40
4.50
0.75
-3.56
-7.86
-11.66
-14.68
-17.06
-19.27
-21.95
-25.66
-30.72
-37.03
-44.04
-50.76
-55.92
-58.26
-56.94
-51.80
-43.53
-33.43
-23.02
-13.54
-5.65
0.61
5.63
9.87
13.65
17.03
19.88
22.06
23.62
24.75
25.75
26.89
28.25
29.74
31.17
32.37
33.30
34.02
34.60
34.97
34.95
34.21
32.55
29.93
26.61
23.01
19.54
16.51
13.99
11.87
9.84
7.57
4.74
1.21
-2.93
-7.37
-11.68
-15.44
-18.51
-21.07
-23.67
-27.00
-31.58
-37.54
-44.45
-51.31
-56.82
-59.69
-59.05
-54.64
-47.03
-37.35
-27.04
-17.34
-9.07
-2.48
2.68
6.83
10.38
13.53
16.29
18.61
20.44
21.89
23.16
24.52
26.13
27.99
29.94
31.73
33.15
34.12
34.66
34.87
34.78
34.31
33.32
31.65
29.25
26.24
22.92
19.64
16.70
14.24
12.14
10.12
7.80
4.92
1.42
-2.51
-6.54
-10.37
-13.79
-16.86
-19.79
-22.91
-26.54
-30.94
-36.14
-41.86
-47.45
-51.95
-54.26
-53.56
-49.53
-42.51
-33.44
-23.51
-13.83
-5.20
2.04
7.81
12.21
15.29
17.14
17.87
17.76
17.24
16.83
16.98
17.94
19.71
22.08
24.73
27.33
29.59
31.34
32.48
32.96
32.72
31.75
30.03
27.64
24.72
21.57
18.50
15.79
13.50
11.46
9.32
6.67
3.36
-0.55
-4.69
-8.60
-11.92
-14.60
-16.82
-19.04
-21.74
-25.33
-29.98
-35.55
-41.44
-46.73
-50.22
-50.87
-48.05
-41.85
-33.06
-22.97
-12.92
-3.96
3.40
9.12
13.45
16.72
19.13
20.80
21.80
22.26
22.40
22.49
22.83
23.54
24.64
25.98
27.34
28.56
29.50
30.16
30.52
30.51
30.03
28.93
27.12
24.66
21.75
18.68
15.71
12.96
10.37
7.70
4.73
1.31
-2.52
-6.49
-10.27
-13.55
-16.20
-18.38
-20.55
-23.31
-27.19
-32.41
-38.66
-45.11
-50.48
-53.50
-53.19
-49.29
-42.23
-33.03
-23.00
-13.29
-4.78
2.16
7.52
11.54
14.57
16.91
18.76
20.24
21.45
22.48
23.49
24.62
25.96
27.44
28.88
30.09
30.93
31.42
31.66
31.71
31.54
30.96
29.73
27.71
24.92
21.58
18.05
14.69
11.75
9.28
7.08
4.84
2.22
-0.94
-4.64
-8.60
-12.45
-15.92
-18.94
-21.75
-24.76
-28.40
-32.96
-38.43
-44.43
-50.18
-54.64
-56.71
-55.56
-50.97
-43.41
-34.00
-24.11
-14.93
-7.14
-0.86
4.21
8.47
12.19
15.40
18.01
19.95
21.31
22.29
23.21
24.31
25.72
27.36
29.03
30.51
31.61
32.28
32.62
32.78
32.82
32.68
32.08
30.74
28.50
25.46
22.01
18.62
15.67
13.24
11.10
8.86
6.17
2.88
-0.91
-4.96
-8.97
-12.71
-16.11
-19.19
-22.07
-24.95
-28.09
-31.77
-36.26
-41.66
-47.69
-53.67
-58.52
-61.04
-60.25
-55.81
-48.15
-38.42
-28.08
-18.41
-10.19
-3.60
1.58
5.72
9.03
11.57
13.38
14.58
15.49
16.51
17.95
19.86
22.07
24.24
26.05
27.36
28.20
28.71
28.99
29.11
28.98
28.49
27.53
26.04
24.01
21.55
18.82
16.05
13.47
11.21
9.30
7.59
5.83
3.77
1.25
-1.67
-4.87
-8.09
-11.18
-14.06
-16.78
-19.52
-22.50
-26.01
-30.20
-35.04
-40.13
-44.72
-47.81
-48.40
-45.88
-40.23
-32.14
-22.73
-13.26
-4.71
2.37
7.84
11.83
14.53
16.07
16.56
16.24
15.50
14.89
14.95
15.97
17.89
20.35
22.80
24.79
26.12
26.85
27.21
27.39
27.38
27.03
26.06
24.28
21.71
18.60
15.38
12.47
10.09
8.20
6.48
4.53
2.02
-1.19
-4.94
-8.93
-12.78
-16.23
-19.22
-21.88
-24.52
-27.51
-31.20
-35.74
-41.01
-46.44
-51.14
-53.97
-53.99
-50.70
-44.30
-35.67
-26.08
-16.78
-8.71
-2.25
2.68
6.44
9.37
11.77
13.76
15.38
16.75
17.96
19.17
20.49
21.93
23.42
24.83
26.03
26.97
27.68
28.22
28.61
28.76
28.45
27.44
25.57
22.89
19.64
16.23
13.06
10.33
8.04
5.94
3.65
0.92
-2.34
-5.97
-9.63
-13.01
-15.91
-18.41
-20.76
-23.39
-26.73
-31.08
-36.44
-42.38
-48.01
-52.17
-53.65
-51.67
-46.16
-37.82
-27.95
-17.94
-8.96
-1.57
4.19
8.64
12.16
14.98
17.18
18.74
19.68
20.13
20.35
20.59
21.06
21.77
22.66
23.56
24.36
25.01
25.55
26.01
26.32
26.32
25.73
24.38
22.23
19.46
16.44
13.52
10.95
8.73
6.67
4.45
1.81
-1.35
-4.96
-8.74
-12.38
-15.60
-18.31
-20.68
-23.08
-25.99
-29.85
-34.83
-40.73
-46.90
-52.32
-55.82
-56.41
-53.55
-47.43
-38.87
-29.13
-19.50
-10.97
-3.98
1.50
5.80
9.25
12.09
14.37
16.06
17.24
18.03
18.71
19.52
20.66
22.19
24.01
25.89
27.56
28.81
29.51
29.72
29.57
29.16
28.46
27.33
25.57
23.11
20.12
16.94
13.98
11.50
9.48
7.64
5.59
2.96
-0.33
-4.16
-8.23
-12.15
-15.64
-18.58
-21.09
-23.50
-26.31
-29.98
-34.79
-40.61
-46.87
-52.62
-56.70
-58.12
-56.29
-51.22
-43.50
-34.17
-24.40
-15.27
-7.47
-1.31
3.29
6.65
9.13
11.05
12.61
13.90
15.03
16.11
17.31
18.81
20.68
22.85
25.07
27.02
28.47
29.28
29.53
29.35
28.85
28.05
26.85
25.11
22.79
19.99
17.01
14.16
11.74
9.79
8.15
6.44
4.27
1.42
-2.13
-6.12
-10.17
-13.94
-17.21
-19.97
-22.43
-24.93
-27.87
-31.63
-36.43
-42.19
-48.41
-54.15
-58.23
-59.47
-57.17
-51.31
-42.64
-32.44
-22.11
-12.78
-5.05
1.02
5.67
9.21
11.85
13.63
14.60
14.92
14.95
15.13
15.86
17.33
19.45
21.95
24.44
26.64
28.41
29.74
30.62
30.99
30.74
29.75
27.99
25.56
22.73
19.79
17.01
14.51
12.27
10.12
7.81
5.17
2.12
-1.21
-4.61
-7.81
-10.70
-13.34
-16.01
-19.11
-23.04
-28.00
-33.86
-40.09
-45.74
-49.68
-50.83
-48.51
-42.79
-34.42
-24.74
-15.17
-6.84
-0.29
4.50
7.89
10.24
11.76
12.51
12.53
12.02
11.41
11.20
11.74
13.06
14.83
16.52
17.67
18.08
17.92
17.55
17.37
17.65
18.41
19.50
20.69
21.82
22.81
23.74
24.67
25.62
26.48
27.02
26.97
26.10
24.33
21.79
18.81
15.84
13.28
11.28
9.65
7.96
5.73
2.69
-1.08
-5.17
-9.05
-12.34
-14.99
-17.29
-19.75
-22.89
-27.08
-32.40
-38.60
-45.06
-50.79
-54.55
-55.23
-52.16
-45.47
-36.05
-25.35
-14.87
-5.68
1.74
7.54
12.15
16.01
19.33
22.12
24.26
25.78
26.83
27.70
28.69
29.96
31.43
32.89
34.07
34.80
35.11
35.13
35.06
34.92
34.55
33.65
31.94
29.37
26.13
22.64
19.34
16.48
14.08
11.91
9.60
6.87
3.60
-0.12
-4.00
-7.73
-11.08
-14.00
-16.63
-19.34
-22.54
-26.63
-31.77
-37.76
-43.98
-49.42
-52.91
-53.42
-50.42
-44.08
-35.22
-25.09
-14.96
-5.83
1.81
7.87
12.60
16.35
19.42
21.95
23.96
25.43
26.40
27.09
27.82
28.87
30.33
31.91
33.15
33.59
33.11
31.97
30.68
29.67
28.96
28.14
26.62
23.99
20.29
16.06
12.02
8.78
6.54
5.02
3.66
1.85
-0.80
-4.36
-8.55
-12.91
-16.98
-20.49
-23.47
-26.18
-29.06
-32.52
-36.85
-42.11
-48.10
-54.32
-59.96
-64.01
-65.43
-63.52
-58.12
-49.82
-39.74
-29.19
-19.29
-10.65
-3.37
2.75
8.00
12.53
16.33
19.29
21.34
22.54
23.09
23.32
23.55
24.02
24.82
25.85
26.92
27.85
28.50
28.85
28.88
28.54
27.70
26.24
24.19
21.77
19.37
17.34
15.78
14.47
12.96
10.80
7.82
4.18
0.35
-3.15
-6.03
-8.34
-10.49
-13.03
-16.43
-20.86
-26.12
-31.62
-36.49
-39.77
-40.65
-38.65
-33.80
-26.66
-18.17
-9.45
-1.46
5.16
10.18
13.70
15.99
17.25
17.62
17.20
16.14
14.73
13.46
12.86
13.25
14.72
16.97
19.51
21.77
23.34
24.08
24.07
23.55
22.72
21.61
20.08
17.91
14.95
11.25
7.13
3.09
-0.40
-3.07
-4.95
-6.38
-7.80
-9.62
-12.10
-15.26
-18.96
-22.87
-26.46
-29.07
-29.98
-28.56
-24.53
-18.05
-9.79
-0.75
7.98
15.52
21.40
25.55
28.23
29.79
30.51
30.53
29.94
28.83
27.43
26.06
25.01
24.45
24.30
24.36
24.37
24.14
23.64
22.91
21.94
20.63
18.72
15.96
12.20
7.56
2.43
-2.64
-7.12
-10.76
-13.66
-16.30
-19.32
-23.26
-28.37
-34.45
-40.84
-46.65
-50.89
-52.75
-51.74
-47.86
-41.57
-33.74
-25.38
-17.40
-10.39
-4.50
0.39
4.52
8.01
10.77
12.68
13.69
13.98
13.99
14.17
14.81
15.90
17.14
18.14
18.62
18.50
17.94
17.14
16.17
14.91
13.12
10.54
7.15
3.20
-0.85
-4.52
-7.54
-9.95
-12.13
-14.65
-18.01
-22.47
-27.90
-33.77
-39.23
-43.22
-44.79
-43.34
-38.81
-31.81
-23.38
-14.70
-6.75
-0.04
5.36
9.68
13.18
15.99
18.10
19.43
20.05
20.15
20.03
19.98
20.14
20.41
20.60
20.54
20.17
19.61
19.06
18.62
18.16
17.37
15.83
13.26
9.69
5.46
1.09
-2.92
-6.29
-9.07
-11.57
-14.18
-17.26
-21.01
-25.39
-30.14
-34.66
-38.12
-39.65
-38.55
-34.58
-28.13
-20.13
-11.78
-4.14
2.16
7.03
10.78
13.82
16.38
18.42
19.71
20.12
19.79
19.16
18.79
19.10
20.14
21.54
22.82
23.55
23.63
23.27
22.78
22.34
21.86
21.04
19.50
17.04
13.69
9.71
5.48
1.35
-2.41
-5.70
-8.62
-11.36
-14.18
-17.36
-21.07
-25.37
-30.12
-34.95
-39.33
-42.50
-43.74
-42.48
-38.51
-32.16
-24.20
-15.74
-7.81
-1.19
3.82
7.35
9.71
11.24
12.15
12.58
12.63
12.55
12.65
13.23
14.41
16.08
17.90
19.42
20.34
20.50
20.00
19.06
17.92
16.74
15.51
14.12
12.37
10.14
7.42
4.34
1.16
-1.86
-4.51
-6.74
-8.64
-10.44
-12.43
-14.91
-18.06
-21.87
-26.01
-29.86
-32.60
-33.41
-31.80
-27.76
-21.78
-14.78
-7.67
-1.23
4.16
8.44
11.77
14.28
15.99
16.85
16.79
15.96
14.69
13.49
12.85
13.08
14.21
15.98
17.96
19.66
20.71
20.92
20.33
19.14
17.61
15.95
14.23
12.39
10.27
7.74
4.80
1.59
-1.63
-4.63
-7.22
-9.42
-11.38
-13.40
-15.77
-18.74
-22.43
-26.76
-31.44
-35.86
-39.23
-40.68
-39.54
-35.61
-29.29
-21.50
-13.37
-5.93
0.23
4.97
8.49
11.07
12.91
14.09
14.66
14.76
14.62
14.52
14.62
14.97
15.48
16.06
16.60
17.09
17.51
17.76
17.72
17.22
16.15
14.56
12.58
10.42
8.22
6.03
3.84
1.57
-0.79
-3.23
-5.71
-8.19
-10.62
-12.95
-15.14
-17.21
-19.27
-21.54
-24.31
-27.81
-32.01
-36.46
-40.35
-42.66
-42.54
-39.57
-33.99
-26.60
-18.50
-10.76
-4.13
1.05
4.83
7.48
9.29
10.53
11.32
11.75
11.90
11.90
11.97
12.35
13.20
14.56
16.28
18.04
19.56
20.58
21.05
21.01
20.58
19.79
18.61
16.94
14.80
12.36
9.88
7.66
5.82
4.24
2.62
0.64
-1.85
-4.76
-7.77
-10.55
-12.92
-14.90
-16.68
-18.55
-20.83
-23.73
-27.40
-31.75
-36.42
-40.74
-43.80
-44.69
-42.83
-38.18
-31.27
-23.14
-14.89
-7.51
-1.51
2.99
6.23
8.50
10.01
10.84
11.06
10.79
10.34
10.11
10.49
11.63
13.36
15.25
16.84
17.81
18.10
17.95
17.63
17.38
17.18
16.83
16.04
14.62
12.62
10.28
7.98
6.02
4.51
3.32
2.20
0.91
-0.64
-2.44
-4.38
-6.35
-8.29
-10.18
-12.01
-13.78
-15.56
-17.52
-20.01
-23.37
-27.75
-32.88
-38.00
-42.00
-43.76
-42.55
-38.33
-31.70
-23.71
-15.52
-8.05
-1.87
2.88
6.27
8.49
9.75
10.27
10.20
9.75
9.14
8.65
8.55
9.05
10.22
11.95
13.93
15.79
17.22
18.10
18.48
18.55
18.48
18.31
17.95
17.24
16.06
14.43
12.55
10.61
8.80
7.17
5.60
3.95
2.08
-0.08
-2.51
-5.07
-7.62
-9.98
-11.98
-13.60
-14.93
-16.27
-17.99
-20.49
-23.96
-28.35
-33.27
-38.05
-41.83
-43.78
-43.27
-40.05
-34.41
-27.10
-19.10
-11.44
-4.82
0.45
4.38
7.22
9.16
10.36
10.89
10.84
10.41
9.93
9.75
10.14
11.22
12.84
14.68
16.33
17.49
18.05
18.14
18.02
17.91
17.85
17.67
17.04
15.74
13.75
11.32
8.88
6.80
5.19
3.93
2.61
0.87
-1.52
-4.47
-7.69
-10.83
-13.65
-16.10
-18.37
-20.75
-23.51
-26.88
-30.91
-35.51
-40.33
-44.77
-48.01
-49.13
-47.46
-42.82
-35.66
-26.93
-17.83
-9.40
-2.29
3.32
7.57
10.73
13.03
14.54
15.34
15.47
15.15
14.72
14.57
15.02
16.16
17.83
19.68
21.34
22.55
23.21
23.36
23.05
22.30
21.08
19.41
17.36
15.07
12.68
10.28
7.86
5.35
2.65
-0.27
-3.43
-6.72
-10.02
-13.13
-15.94
-18.44
-20.87
-23.60
-27.06
-31.48
-36.72
-42.09
-46.54
-48.95
-48.47
-44.84
-38.45
-30.20
-21.25
-12.71
-5.40
0.32
4.46
7.29
9.11
10.15
10.53
10.37
9.88
9.42
9.40
10.14
11.72
13.89
16.26
18.38
19.95
20.86
21.10
20.74
19.85
18.48
16.69
14.51
12.01
9.21
6.21
3.14
0.19
-2.44
-4.64
-6.49
-8.22
-10.16
-12.61
-15.72
-19.45
-23.56
-27.58
-30.91
-32.82
-32.62
-29.88
-24.64
-17.48
-9.39
-1.47
5.42
10.83
14.76
17.40
18.96
19.46
18.92
17.44
15.39
13.37
12.01
11.74
12.63
14.40
16.54
18.53
19.99
20.78
20.88
20.39
19.37
17.81
15.66
12.87
9.50
5.80
2.13
-1.12
-3.73
-5.74
-7.51
-9.54
-12.34
-16.22
-21.14
-26.73
-32.30
-37.05
-40.12
-40.79
-38.65
-33.78
-26.74
-18.46
-10.00
-2.20
4.49
10.01
14.50
18.11
20.88
22.73
23.66
23.83
23.65
23.58
24.03
25.14
26.76
28.56
30.16
31.28
31.85
31.90
31.53
30.80
29.67
27.98
25.56
22.28
18.19
13.52
8.68
4.11
0.07
-3.43
-6.68
-10.17
-14.33
-19.37
-25.09
-30.85
-35.74
-38.73
-39.05
-36.39
-31.00
-23.68
-15.47
-7.39
-0.17
5.91
10.88
14.89
18.03
20.23
21.32
21.25
20.23
18.81
17.73
17.68
18.97
21.41
24.37
27.07
28.91
29.69
29.59
28.98
28.06
26.77
24.78
21.82
17.96
13.71
9.82
6.87
4.98
3.74
2.46
0.54
-2.26
-5.80
-9.82
-14.06
-18.36
-22.50
-26.00
-28.11
-27.95
-25.01
-19.37
-11.86
-3.69
3.91
10.19
14.94
18.44
21.15
23.31
24.95
25.87
25.90
25.08
23.78
22.53
21.87
22.05
22.92
24.06
24.91
25.08
24.46
23.22
21.72
20.26
18.94
17.62
16.03
13.85
11.00
7.61
4.00
0.56
-2.49
-5.10
-7.44
-9.73
-12.17
-14.89
-17.95
-21.45
-25.42
-29.82
-34.35
-38.34
-40.91
-41.15
-38.47
-32.88
-25.09
-16.26
-7.69
-0.37
5.26
9.28
12.12
14.20
15.77
16.84
17.34
17.31
17.00
16.83
17.20
18.32
20.09
22.12
23.96
25.25
25.83
25.73
25.11
24.08
22.70
20.97
18.88
16.43
13.72
10.87
8.02
5.27
2.69
0.30
-1.91
-3.99
-6.04
-8.22
-10.72
-13.78
-17.54
-22.04
-27.07
-32.11
-36.37
-38.93
-38.98
-36.11
-30.53
-23.00
-14.67
-6.67
0.14
5.41
9.19
11.80
13.57
14.74
15.39
15.61
15.56
15.52
15.81
16.68
18.16
20.09
22.13
23.93
25.27
26.07
26.35
26.17
25.51
24.29
22.43
19.95
17.07
14.12
11.43
9.17
7.28
5.49
3.44
0.88
-2.23
-5.66
-9.07
-12.14
-14.71
-16.92
-19.13
-21.83
-25.39
-29.96
-35.19
-40.36
-44.44
-46.37
-45.44
-41.52
-35.10
-27.13
-18.74
-10.91
-4.22
1.15
5.34
8.57
11.08
13.04
14.55
15.78
16.90
18.08
19.44
20.97
22.58
24.12
25.47
26.51
27.21
27.55
27.54
27.24
26.69
25.88
24.78
23.32
21.45
19.17
16.63
14.02
11.57
9.43
7.61
6.02
4.48
2.79
0.79
-1.59
-4.28
-7.12
-9.92
-12.49
-14.79
-16.86
-18.96
-21.35
-24.33
-28.06
-32.48
-37.29
-41.89
-45.53
-47.39
-46.83
-43.58
-37.86
-30.36
-22.09
-14.12
-7.23
-1.82
2.17
5.11
7.46
9.52
11.38
12.93
14.11
14.96
15.72
16.67
18.04
19.78
21.68
23.40
24.65
25.31
25.44
25.22
24.81
24.25
23.51
22.50
21.15
19.50
17.61
15.59
13.53
11.42
9.26
7.05
4.83
2.69
0.72
-1.03
-2.65
-4.26
-6.07
-8.15
-10.47
-12.89
-15.20
-17.29
-19.15
-20.90
-22.77
-25.01
-27.84
-31.32
-35.31
-39.35
-42.77
-44.75
-44.60
-41.94
-36.93
-30.21
-22.75
-15.56
-9.39
-4.59
-1.08
1.47
3.46
5.12
6.52
7.62
8.38
8.92
9.49
10.39
11.81
13.70
15.80
17.71
19.14
19.98
20.37
20.51
20.59
20.61
20.41
19.77
18.50
16.64
14.37
12.01
9.85
8.12
6.81
5.72
4.60
3.14
1.18
-1.29
-4.10
-6.94
-9.56
-11.77
-13.61
-15.24
-16.94
-18.95
-21.48
-24.60
-28.34
-32.51
-36.73
-40.35
-42.59
-42.71
-40.27
-35.37
-28.64
-21.11
-13.81
-7.52
-2.56
1.20
4.05
6.27
7.93
8.97
9.35
9.17
8.82
8.75
9.34
10.70
12.61
14.65
16.37
17.56
18.24
18.60
18.81
18.95
18.87
18.38
17.31
15.61
13.41
10.94
8.50
6.26
4.24
2.26
0.10
-2.43
-5.36
-8.48
-11.51
-14.17
-16.36
-18.19
-19.98
-22.13
-24.99
-28.72
-33.22
-38.07
-42.61
-45.95
-47.23
-45.84
-41.63
-35.05
-27.07
-18.84
-11.45
-5.53
-1.16
2.00
4.46
6.61
8.53
10.03
10.90
11.09
10.84
10.65
10.98
12.09
13.89
16.01
17.91
19.21
19.72
19.52
18.78
17.68
16.33
14.73
12.83
10.56
7.93
5.01
1.96
-1.04
-3.87
-6.47
-8.86
-11.10
-13.26
-15.42
-17.74
-20.43
-23.73
-27.78
-32.44
-37.20
-41.19
-43.42
-43.09
-39.89
-34.17
-26.79
-18.91
-11.60
-5.60
-1.10
2.12
4.55
6.58
8.38
9.84
10.76
11.03
10.86
10.63
10.84
11.75
13.33
15.24
17.00
18.25
18.88
18.99
18.76
18.29
17.46
16.00
13.71
10.54
6.76
2.84
-0.76
-3.80
-6.32
-8.68
-11.27
-14.42
-18.29
-22.81
-27.80
-32.87
-37.47
-40.82
-42.11
-40.72
-36.51
-29.93
-21.92
-13.60
-5.89
0.70
6.08
10.40
13.85
16.49
18.28
19.18
19.31
18.95
18.49
18.32
18.63
19.40
20.41
21.40
22.16
22.63
22.85
22.88
22.70
22.15
20.95
18.89
15.92
12.24
8.26
4.41
1.05
-1.74
-4.12
-6.50
-9.35
-13.07
-17.84
-23.45
-29.31
-34.45
-37.75
-38.29
-35.59
-29.85
-21.91
-12.98
-4.26
3.39
9.62
14.44
18.08
20.72
22.46
23.29
23.31
22.79
22.15
21.86
22.21
23.25
24.66
25.96
26.71
26.66
25.91
24.77
23.55
22.39
21.14
19.41
16.83
13.25
8.90
4.30
0.03
-3.48
-6.21
-8.47
-10.79
-13.67
-17.43
-22.13
-27.54
-33.21
-38.46
-42.43
-44.25
-43.22
-39.12
-32.30
-23.68
-14.51
-5.91
1.37
7.14
11.52
14.77
17.00
18.20
18.31
17.54
16.39
15.55
15.63
16.90
19.12
21.69
23.92
25.33
25.83
25.68
25.24
24.78
24.29
23.48
21.97
19.52
16.14
12.16
8.08
4.34
1.21
-1.35
-3.59
-5.88
-8.55
-11.86
-15.87
-20.46
-25.22
-29.44
-32.18
-32.55
-29.94
-24.43
-16.80
-8.32
-0.32
6.31
11.25
14.77
17.34
19.28
20.62
21.17
20.84
19.80
18.59
17.84
18.05
19.32
21.35
23.59
25.47
26.63
26.94
26.49
25.49
24.09
22.36
20.31
17.85
14.93
11.55
7.80
3.89
0.08
-3.41
-6.44
-9.04
-11.39
-13.75
-16.45
-19.80
-24.02
-29.13
-34.82
-40.33
-44.62
-46.59
-45.43
-40.94
-33.64
-24.61
-15.16
-6.44
0.86
6.53
10.78
13.94
16.28
17.91
18.89
19.28
19.31
19.35
19.74
20.69
22.11
23.71
25.13
26.11
26.62
26.75
26.61
26.19
25.34
23.90
21.84
19.30
16.54
13.80
11.19
8.65
6.02
3.21
0.20
-2.86
-5.76
-8.35
-10.65
-12.91
-15.57
-19.06
-23.66
-29.27
-35.35
-40.98
-45.06
-46.65
-45.22
-40.80
-34.01
-25.79
-17.20
-9.13
-2.16
3.55
8.08
11.66
14.49
16.69
18.31
19.40
20.14
20.78
21.58
22.76
24.29
25.98
27.55
28.78
29.54
29.89
29.89
29.58
28.89
27.67
25.85
23.43
20.65
17.81
15.17
12.86
10.77
8.64
6.20
3.33
0.04
-3.42
-6.80
-9.93
-12.78
-15.53
-18.38
-21.59
-25.36
-29.78
-34.77
-39.92
-44.49
-47.51
-48.02
-45.41
-39.76
-31.84
-22.86
-14.11
-6.50
-0.32
4.62
8.73
12.32
15.43
17.88
19.46
20.15
20.21
20.10
20.25
20.92
22.08
23.51
24.86
25.94
26.67
27.11
27.36
27.42
27.16
26.38
24.89
22.66
19.87
16.85
13.98
11.54
9.58
7.93
6.27
4.23
1.61
-1.55
-4.96
-8.26
-11.14
-13.51
-15.53
-17.55
-19.96
-23.06
-27.01
-31.73
-36.88
-41.83
-45.72
-47.59
-46.70
-42.73
-36.05
-27.58
-18.60
-10.27
-3.37
1.84
5.56
8.11
9.80
10.78
11.13
10.97
10.60
10.42
10.82
11.97
13.77
15.88
17.89
19.48
20.59
21.29
21.76
22.05
22.06
21.52
20.23
18.09
15.28
12.18
9.23
6.78
4.93
3.51
2.18
0.62
-1.36
-3.69
-6.15
-8.46
-10.44
-12.09
-13.60
-15.29
-17.49
-20.43
-24.15
-28.42
-32.65
-36.04
-37.64
-36.75
-33.08
-26.95
-19.20
-10.93
-3.17
3.35
8.35
11.83
13.98
14.98
15.03
14.33
13.18
11.98
11.17
11.10
11.93
13.56
15.68
17.85
19.72
21.05
21.76
21.84
21.26
19.93
17.81
15.00
11.78
8.61
5.84
3.64
1.85
0.09
-2.05
-4.76
-7.94
-11.28
-14.37
-16.96
-19.04
-20.84
-22.80
-25.31
-28.69
-32.94
-37.78
-42.58
-46.48
-48.54
-47.99
-44.50
-38.31
-30.24
-21.46
-13.12
-6.06
-0.61
3.40
6.37
8.66
10.50
11.90
12.82
13.32
13.60
13.93
14.55
15.59
16.98
18.54
20.09
21.46
22.56
23.32
23.64
23.45
22.66
21.21
19.19
16.71
13.99
11.24
8.61
6.14
3.73
1.20
-1.60
-4.73
-8.07
-11.44
-14.64
-17.59
-20.34
-23.12
-26.25
-30.03
-34.55
-39.59
-44.51
-48.34
-50.01
-48.72
-44.26
-37.10
-28.32
-19.17
-10.81
-3.88
1.49
5.56
8.73
11.34
13.49
15.19
16.41
17.24
17.87
18.56
19.47
20.63
21.94
23.21
24.29
25.16
25.87
26.47
26.93
27.08
26.68
25.53
23.53
20.81
17.62
14.32
11.16
8.29
5.65
3.10
0.46
-2.33
-5.23
-8.12
-10.85
-13.34
-15.65
-17.94
-20.49
-23.59
-27.49
-32.22
-37.52
-42.71
-46.83
-48.81
-47.85
-43.72
-36.88
-28.35
-19.38
-11.05
-3.99
1.69
6.24
9.97
13.02
15.39
17.00
17.85
18.15
18.22
18.45
19.05
20.09
21.42
22.84
24.14
25.26
26.16
26.87
27.36
27.53
27.20
26.19
24.41
21.94
19.06
16.16
13.57
11.46
9.69
7.92
5.72
2.82
-0.75
-4.68
-8.47
-11.67
-14.06
-15.84
-17.43
-19.48
-22.54
-26.87
-32.34
-38.38
-44.03
-48.14
-49.67
-47.93
-42.85
-34.99
-25.44
-15.53
-6.44
1.01
6.54
10.29
12.68
14.15
15.07
15.68
16.12
16.50
16.94
17.57
18.46
19.57
20.78
21.91
22.92
23.77
24.53
25.23
25.80
26.03
25.63
24.39
22.25
19.43
16.28
13.25
10.65
8.58
6.88
5.23
3.28
0.82
-2.15
-5.41
-8.63
-11.52
-13.96
-16.04
-18.06
-20.36
-23.31
-27.06
-31.49
-36.10
-40.04
-42.30
-41.93
-38.43
-31.93
-23.26
-13.69
-4.54
3.19
9.07
13.18
15.92
17.65
18.60
18.85
18.45
17.63
16.75
16.24
16.44
17.45
19.07
20.95
22.74
24.15
25.05
25.37
25.07
24.09
22.43
20.15
17.45
14.64
12.01
9.76
7.89
6.20
4.37
2.11
-0.70
-3.96
-7.36
-10.50
-13.15
-15.31
-17.27
-19.52
-22.55
-26.64
-31.73
-37.37
-42.76
-46.87
-48.70
-47.53
-43.11
-35.83
-26.61
-16.71
-7.32
0.66
6.81
11.21
14.16
16.06
17.21
17.80
17.93
17.76
17.53
17.51
17.95
18.99
20.53
22.37
24.16
25.62
26.58
26.96
26.82
26.18
25.00
23.24
20.85
17.96
14.81
11.77
9.09
6.85
4.86
2.81
0.40
-2.49
-5.74
-9.02
-12.02
-14.54
-16.64
-18.64
-21.00
-24.18
-28.47
-33.85
-39.84
-45.54
-49.78
-51.40
-49.65
-44.45
-36.42
-26.76
-16.85
-7.82
-0.40
5.30
9.48
12.52
14.75
16.33
17.36
17.92
18.18
18.42
18.94
19.96
21.48
23.33
25.23
26.84
27.98
28.62
28.84
28.73
28.28
27.39
25.89
23.70
20.89
17.72
14.58
11.80
9.55
7.67
5.84
3.65
0.84
-2.52
-6.15
-9.59
-12.58
-15.05
-17.27
-19.66
-22.63
-26.47
-31.21
-36.65
-42.21
-47.06
-50.13
-50.48
-47.52
-41.39
-32.89
-23.29
-13.94
-5.80
0.70
5.65
9.40
12.33
14.64
16.39
17.60
18.32
18.78
19.28
20.09
21.39
23.16
25.19
27.16
28.76
29.81
30.30
30.37
30.19
29.82
29.17
28.04
26.21
23.65
20.53
17.22
14.15
11.61
9.66
8.04
6.37
4.31
1.66
-1.48
-4.85
-8.11
-11.07
-13.68
-16.13
-18.70
-21.68
-25.35
-29.81
-35.02
-40.60
-45.81
-49.63
-50.99
-49.13
-43.95
-36.05
-26.63
-17.06
-8.44
-1.40
3.98
7.96
10.90
13.04
14.52
15.37
15.69
15.68
15.67
16.01
16.96
18.52
20.49
22.48
24.11
25.16
25.62
25.65
25.42
25.03
24.40
23.36
21.80
19.70
17.26
14.74
12.41
10.44
8.84
7.49
6.18
4.67
2.74
0.29
-2.64
-5.80
-8.82
-11.37
-13.31
-14.82
-16.37
-18.53
-21.73
-26.03
-31.06
-36.09
-40.22
-42.60
-42.61
-39.97
-34.83
-27.71
-19.43
-10.95
-3.15
3.37
8.39
11.95
14.26
15.58
16.06
15.88
15.26
14.54
14.11
14.32
15.33
17.03
19.09
21.09
22.69
23.76
24.33
24.57
24.59
24.41
23.87
22.73
20.80
18.09
14.87
11.61
8.78
6.69
5.29
4.23
3.01
1.20
-1.33
-4.39
-7.58
-10.51
-12.97
-15.07
-17.14
-19.64
-22.94
-27.21
-32.31
-37.73
-42.69
-46.23
-47.49
-45.91
-41.41
-34.49
-26.04
-17.10
-8.62
-1.23
4.75
9.30
12.51
14.50
15.40
15.37
14.68
13.73
12.96
12.80
13.45
14.90
16.88
19.02
20.94
22.39
23.26
23.54
23.30
22.59
21.46
19.98
18.19
16.18
14.04
11.90
9.88
8.06
6.44
4.89
3.22
1.18
-1.36
-4.39
-7.66
-10.90
-13.85
-16.46
-18.87
-21.37
-24.28
-27.81
-32.05
-36.79
-41.59
-45.71
-48.26
-48.43
-45.69
-40.08
-32.22
-23.18
-14.19
-6.24
0.13
4.89
8.34
10.91
12.89
14.40
15.43
16.00
16.30
16.64
17.32
18.42
19.80
21.08
21.91
22.15
21.94
21.60
21.43
21.49
21.57
21.30
20.36
18.63
16.24
13.51
10.82
8.42
6.42
4.73
3.14
1.42
-0.65
-3.15
-6.02
-9.03
-11.91
-14.41
-16.43
-18.12
-19.85
-22.06
-25.14
-29.25
-34.12
-39.10
-43.20
-45.36
-44.75
-41.08
-34.71
-26.56
-17.93
-9.96
-3.41
1.51
5.06
7.66
9.69
11.25
12.33
12.87
13.02
13.15
13.67
14.89
16.83
19.20
21.52
23.39
24.61
25.24
25.50
25.58
25.54
25.25
24.50
23.13
21.09
18.55
15.76
13.04
10.58
8.47
6.64
4.93
3.13
1.06
-1.32
-4.00
-6.83
-9.63
-12.28
-14.75
-17.16
-19.72
-22.69
-26.28
-30.56
-35.41
-40.42
-44.94
-48.16
-49.23
-47.60
-43.15
-36.31
-27.96
-19.18
-10.97
-3.96
1.62
5.88
9.02
11.23
12.57
13.11
12.98
12.52
12.18
12.42
13.47
15.26
17.45
19.60
21.36
22.57
23.30
23.68
23.81
23.64
23.01
21.75
19.77
17.24
14.47
11.88
9.79
8.27
7.12
5.91
4.23
1.90
-1.02
-4.15
-7.06
-9.44
-11.28
-12.82
-14.51
-16.77
-19.90
-23.91
-28.55
-33.28
-37.36
-39.93
-40.22
-37.81
-32.75
-25.64
-17.48
-9.34
-2.10
3.76
8.12
11.14
13.08
14.13
14.49
14.36
13.99
13.67
13.66
14.12
15.08
16.44
18.01
19.60
21.04
22.18
22.90
23.14
22.84
22.00
20.64
18.89
16.89
14.85
12.92
11.09
9.23
7.12
4.62
1.70
-1.45
-4.61
-7.57
-10.27
-12.81
-15.36
-18.12
-21.29
-25.01
-29.30
-33.98
-38.50
-42.00
-43.48
-42.15
-37.76
-30.78
-22.29
-13.59
-5.78
0.55
5.40
9.08
11.99
14.36
16.18
17.37
17.89
17.90
17.75
17.82
18.36
19.41
20.81
22.29
23.60
24.60
25.19
25.34
25.03
24.17
22.73
20.75
18.39
15.92
13.58
11.54
9.77
8.11
6.25
3.96
1.17
-2.04
-5.38
-8.57
-11.43
-14.02
-16.58
-19.51
-23.17
-27.82
-33.38
-39.39
-45.01
-49.14
-50.71
-49.05
-44.15
-36.71
-27.90
-19.01
-10.99
-4.30
1.12
5.58
9.36
12.62
15.30
17.32
18.69
19.56
20.21
20.90
21.81
22.94
24.17
25.33
26.31
27.09
27.73
28.25
28.54
28.40
27.58
25.93
23.53
20.69
17.81
15.21
13.00
11.00
8.96
6.58
3.78
0.62
-2.69
-5.92
-8.91
-11.59
-13.97
-16.18
-18.51
-21.32
-24.97
-29.66
-35.20
-40.94
-45.83
-48.67
-48.51
-44.99
-38.50
-30.08
-21.06
-12.63
-5.50
0.18
4.70
8.50
11.89
14.95
17.57
19.59
20.98
21.93
22.74
23.73
25.04
26.61
28.20
29.55
30.42
30.80
30.78
30.56
30.25
29.85
29.17
28.02
26.25
23.90
21.20
18.44
15.92
13.73
11.78
9.84
7.61
4.91
1.72
-1.80
-5.34
-8.62
-11.44
-13.84
-16.01
-18.29
-21.00
-24.47
-28.85
-34.07
-39.78
-45.24
-49.47
-51.37
-50.19
-45.73
-38.54
-29.74
-20.69
-12.51
-5.78
-0.54
3.53
6.81
9.54
11.75
13.39
14.47
15.17
15.83
16.79
18.26
20.20
22.36
24.38
25.96
26.95
27.39
27.46
27.28
26.94
26.35
25.35
23.82
21.73
19.27
16.72
14.43
12.59
11.17
9.95
8.57
6.80
4.54
1.93
-0.80
-3.43
-5.87
-8.12
-10.26
-12.42
-14.74
-17.37
-20.54
-24.41
-29.00
-33.95
-38.55
-41.82
-42.77
-40.76
-35.75
-28.37
-19.73
-11.09
-3.48
2.58
7.08
10.33
12.73
14.52
15.73
16.35
16.47
16.33
16.32
16.81
17.93
19.55
21.28
22.72
23.60
23.90
23.83
23.64
23.49
23.35
22.97
22.10
20.54
18.32
15.72
13.13
10.91
9.21
7.93
6.73
5.24
3.19
0.53
-2.57
-5.80
-8.82
-11.47
-13.73
-15.84
-18.12
-20.90
-24.42
-28.75
-33.62
-38.50
-42.57
-44.90
-44.71
-41.61
-35.82
-28.09
-19.55
-11.37
-4.42
0.92
4.76
7.49
9.57
11.23
12.54
13.44
13.94
14.25
14.67
15.50
16.85
18.57
20.29
21.66
22.52
22.95
23.22
23.51
23.81
23.81
23.13
21.47
18.82
15.51
12.06
9.01
6.65
5.00
3.70
2.31
0.47
-1.96
-4.87
-8.02
-11.09
-13.89
-16.39
-18.70
-21.07
-23.81
-27.22
-31.47
-36.45
-41.61
-46.09
-48.82
-48.88
-45.87
-40.03
-32.25
-23.67
-15.41
-8.22
-2.37
2.24
5.91
8.92
11.39
13.36
14.82
15.82
16.53
17.21
18.08
19.25
20.60
21.91
22.91
23.49
23.70
23.76
23.85
23.97
23.88
23.22
21.74
19.39
16.47
13.44
10.74
8.58
6.90
5.39
3.70
1.61
-0.93
-3.79
-6.73
-9.55
-12.13
-14.49
-16.81
-19.38
-22.53
-26.51
-31.33
-36.63
-41.70
-45.54
-47.19
-46.01
-41.91
-35.44
-27.60
-19.57
-12.29
-6.23
-1.35
2.69
6.30
9.65
12.64
15.01
16.53
17.21
17.34
17.40
17.76
18.59
19.75
20.93
21.83
22.33
22.50
22.50
22.43
22.22
21.69
20.63
18.97
16.82
14.44
12.12
9.98
8.01
6.03
3.80
1.19
-1.78
-4.92
-7.95
-10.60
-12.76
-14.51
-16.13
-18.02
-20.51
-23.87
-28.08
-32.90
-37.77
-41.91
-44.42
-44.55
-41.93
-36.70
-29.56
-21.53
-13.64
-6.70
-1.13
3.01
5.91
7.80
8.93
9.51
9.68
9.57
9.37
9.31
9.59
10.41
11.82
13.72
15.87
17.94
19.67
20.81
21.27
21.02
20.12
18.65
16.78
14.69
12.54
10.47
8.53
6.67
4.75
2.63
0.23
-2.44
-5.21
-7.89
-10.30
-12.44
-14.44
-16.64
-19.39
-22.91
-27.17
-31.72
-35.83
-38.55
-39.01
-36.69
-31.61
-24.38
-16.01
-7.61
-0.07
6.08
10.78
14.20
16.55
17.97
18.57
18.45
17.89
17.29
17.10
17.64
18.94
20.78
22.72
24.33
25.36
25.74
25.62
25.13
24.36
23.25
21.72
19.71
17.27
14.54
11.71
8.93
6.21
3.50
0.70
-2.25
-5.30
-8.30
-11.13
-13.74
-16.24
-18.90
-22.07
-26.09
-31.08
-36.82
-42.70
-47.76
-50.92
-51.27
-48.41
-42.60
-34.68
-25.85
-17.27
-9.77
-3.68
1.06
4.78
7.80
10.35
12.56
14.48
16.15
17.59
18.84
19.91
20.83
21.61
22.36
23.13
23.97
24.83
25.56
25.94
25.76
24.86
23.23
20.99
18.38
15.70
13.16
10.85
8.67
6.44
3.97
1.15
-1.94
-5.09
-8.06
-10.71
-13.03
-15.22
-17.57
-20.43
-24.11
-28.69
-33.98
-39.40
-44.00
-46.70
-46.58
-43.25
-37.00
-28.76
-19.77
-11.22
-3.85
2.06
6.66
10.27
13.19
15.56
17.43
18.85
19.89
20.70
21.46
22.27
23.14
23.96
24.65
25.10
25.34
25.43
25.48
25.53
25.53
25.30
24.64
23.43
21.63
19.39
16.96
14.60
12.46
10.52
8.56
6.29
3.52
0.22
-3.37
-6.93
-10.16
-12.98
-15.54
-18.21
-21.37
-25.30
-30.05
-35.31
-40.43
-44.52
-46.65
-46.07
-42.52
-36.33
-28.33
-19.67
-11.42
-4.35
1.23
5.44
8.61
11.06
12.96
14.37
15.26
15.74
16.03
16.42
17.17
18.39
19.94
21.58
23.03
24.18
25.03
25.68
26.19
26.53
26.53
25.98
24.69
22.66
20.06
17.22
14.50
12.14
10.17
8.41
6.52
4.18
1.26
-2.12
-5.62
-8.88
-11.68
-14.04
-16.22
-18.60
-21.55
-25.28
-29.80
-34.86
-39.95
-44.27
-46.90
-46.98
-44.01
-38.10
-30.05
-21.11
-12.60
-5.44
-0.00
3.89
6.71
8.85
10.59
11.95
12.94
13.59
14.06
14.55
15.23
16.16
17.27
18.43
19.52
20.47
21.28
21.97
22.50
22.71
22.39
21.39
19.64
17.33
14.80
12.45
10.51
9.00
7.65
6.10
4.09
1.56
-1.30
-4.14
-6.64
-8.69
-10.41
-12.13
-14.27
-17.22
-21.18
-26.06
-31.45
-36.58
-40.47
-42.11
-40.81
-36.38
-29.33
-20.66
-11.65
-3.43
3.21
8.05
11.24
13.17
14.23
14.75
14.89
14.79
14.61
14.52
14.77
15.54
16.87
18.62
20.54
22.27
23.59
24.34
24.53
24.19
23.34
21.94
19.99
17.55
14.83
12.09
9.54
7.25
5.10
2.83
0.24
-2.72
-5.87
-8.90
-11.54
-13.69
-15.52
-17.42
-19.86
-23.21
-27.59
-32.77
-38.15
-42.84
-45.87
-46.37
-43.90
-38.57
-31.11
-22.67
-14.42
-7.26
-1.59
2.69
5.92
8.49
10.57
12.18
13.24
13.78
14.01
14.23
14.76
15.76
17.21
18.92
20.63
22.14
23.35
24.20
24.63
24.54
23.82
22.38
20.31
17.83
15.27
12.92
10.83
8.88
6.76
4.20
1.13
-2.32
-5.85
-9.21
-12.26
-15.04
-17.73
-20.57
-23.78
-27.57
-31.98
-36.82
-41.56
-45.36
-47.23
-46.37
-42.48
-35.88
-27.49
-18.45
-9.84
-2.39
3.59
8.17
11.57
14.05
15.81
17.02
17.83
18.41
18.97
19.69
20.69
21.95
23.41
24.90
26.24
27.32
28.01
28.24
27.98
27.20
25.89
24.08
21.82
19.23
16.49
13.80
11.33
9.11
7.02
4.84
2.33
-0.57
-3.79
-7.12
-10.34
-13.37
-16.31
-19.43
-23.08
-27.47
-32.57
-37.98
-42.93
-46.47
-47.67
-45.95
-41.26
-34.15
-25.60
-16.76
-8.61
-1.78
3.54
7.50
10.39
12.50
14.01
15.05
15.70
16.11
16.54
17.23
18.39
19.98
21.80
23.52
24.87
25.72
26.10
26.10
25.79
25.15
24.06
22.47
20.37
17.91
15.34
12.88
10.61
8.45
6.18
3.55
0.44
-3.03
-6.55
-9.75
-12.36
-14.35
-16.01
-17.85
-20.37
-23.90
-28.35
-33.22
-37.64
-40.59
-41.12
-38.71
-33.37
-25.76
-16.97
-8.24
-0.58
5.45
9.81
12.81
14.84
16.17
16.90
17.05
16.70
16.13
15.73
15.89
16.78
18.35
20.29
22.24
23.87
25.00
25.55
25.53
24.95
23.85
22.26
20.27
17.99
15.49
12.86
10.16
7.40
4.57
1.65
-1.35
-4.41
-7.41
-10.25
-12.92
-15.49
-18.21
-21.41
-25.40
-30.23
-35.60
-40.78
-44.76
-46.50
-45.22
-40.77
-33.62
-24.83
-15.67
-7.27
-0.36
4.86
8.57
11.15
12.91
14.06
14.70
14.92
14.89
14.89
15.21
16.07
17.49
19.33
21.32
23.18
24.69
25.69
26.12
25.94
25.11
23.62
21.54
19.05
16.39
13.78
11.38
9.17
7.02
4.73
2.14
-0.78
-3.93
-7.09
-10.11
-12.91
-15.66
-18.65
-22.26
-26.77
-32.12
-37.87
-43.17
-46.94
-48.16
-46.24
-41.17
-33.64
-24.76
-15.77
-7.69
-1.05
4.08
7.98
11.03
13.53
15.59
17.21
18.35
19.10
19.66
20.29
21.19
22.40
23.74
24.96
25.86
26.42
26.76
26.98
27.07
26.81
25.90
24.10
21.44
18.23
14.92
11.95
9.52
7.53
5.68
3.60
1.04
-2.00
-5.28
-8.44
-11.16
-13.42
-15.48
-17.90
-21.30
-26.02
-31.91
-38.21
-43.69
-47.00
-47.16
-43.82
-37.44
-29.10
-20.08
-11.51
-4.11
1.94
6.78
10.69
13.88
16.43
18.34
19.60
20.34
20.77
21.19
21.87
22.92
24.27
25.70
26.98
27.95
28.55
28.83
28.85
28.59
27.95
26.78
24.98
22.61
19.85
17.01
14.37
12.05
10.01
8.02
5.81
3.20
0.19
-3.02
-6.18
-9.06
-11.62
-13.96
-16.33
-19.03
-22.32
-26.39
-31.24
-36.60
-41.83
-45.95
-47.91
-46.90
-42.69
-35.81
-27.31
-18.46
-10.31
-3.44
2.08
6.47
9.93
12.54
14.23
14.95
14.83
14.25
13.74
13.80
14.66
16.23
18.11
19.85
21.09
21.74
21.95
22.00
22.03
21.97
21.55
20.48
18.62
16.15
13.44
10.93
8.90
7.37
6.15
4.94
3.50
1.75
-0.27
-2.44
-4.62
-6.73
-8.72
-10.62
-12.56
-14.77
-17.52
-21.04
-25.37
-30.18
-34.80
-38.30
-39.76
-38.53
-34.49
-28.07
-20.17
-11.88
-4.18
2.27
7.15
10.52
12.61
13.72
14.18
14.23
14.13
14.07
14.22
14.71
15.61
16.90
18.51
20.25
21.92
23.33
24.34
24.92
25.04
24.67
23.74
22.16
19.93
17.16
14.15
11.21
8.63
6.45
4.51
2.48
0.11
-2.69
-5.80
-8.87
-11.59
-13.79
-15.57
-17.20
-19.13
-21.75
-25.34
-29.86
-34.92
-39.74
-43.33
-44.69
-43.16
-38.66
-31.76
-23.47
-14.97
-7.23
-0.79
4.23
8.00
10.80
12.85
14.26
15.11
15.49
15.58
15.65
15.91
16.50
17.45
18.61
19.80
20.79
21.48
21.88
22.04
22.03
21.82
21.26
20.19
18.49
16.23
13.65
11.08
8.77
6.77
4.92
2.93
0.57
-2.24
-5.35
-8.51
-11.40
-13.87
-15.90
-17.66
-19.50
-21.87
-25.14
-29.49
-34.74
-40.21
-44.86
-47.54
-47.36
-43.99
-37.82
-29.83
-21.24
-13.17
-6.31
-0.87
3.29
6.49
9.02
11.00
12.46
13.39
13.84
14.05
14.31
14.94
16.05
17.53
19.08
20.36
21.17
21.51
21.58
21.61
21.66
21.65
21.29
20.35
18.72
16.53
14.06
11.65
9.53
7.72
6.05
4.24
2.02
-0.69
-3.81
-7.04
-10.08
-12.70
-14.91
-16.90
-19.01
-21.59
-24.92
-29.05
-33.84
-38.82
-43.25
-46.19
-46.74
-44.38
-39.15
-31.76
-23.35
-15.13
-7.99
-2.28
2.11
5.56
8.39
10.80
12.75
14.16
15.05
15.57
16.03
16.74
17.90
19.49
21.26
22.89
24.06
24.68
24.83
24.74
24.62
24.52
24.34
23.88
22.94
21.41
19.33
16.87
14.25
11.69
9.31
7.11
4.95
2.62
-0.04
-3.06
-6.32
-9.55
-12.55
-15.21
-17.66
-20.23
-23.24
-27.00
-31.53
-36.56
-41.48
-45.53
-47.93
-48.06
-45.66
-40.88
-34.19
-26.33
-18.14
-10.41
-3.72
1.60
5.52
8.24
10.10
11.37
12.26
12.83
13.13
13.27
13.46
13.96
14.91
16.29
17.90
19.45
20.72
21.58
22.00
21.98
21.51
20.53
19.02
17.09
14.93
12.80
10.92
9.33
7.92
6.50
4.82
2.71
0.15
-2.75
-5.72
-8.46
-10.75
-12.51
-13.92
-15.32
-17.13
-19.69
-23.16
-27.40
-32.00
-36.29
-39.48
-40.74
-39.46
-35.43
-28.98
-20.91
-12.33
-4.32
2.39
7.48
11.12
13.61
15.27
16.27
16.66
16.51
15.98
15.38
15.09
15.40
16.39
17.90
19.60
21.19
22.45
23.34
23.92
24.22
24.18
23.66
22.51
20.67
18.22
15.42
12.61
10.05
7.87
5.96
4.08
1.92
-0.72
-3.82
-7.20
-10.53
-13.53
-16.10
-18.35
-20.62
-23.35
-26.95
-31.56
-37.01
-42.73
-47.73
-50.90
-51.27
-48.29
-42.20
-33.87
-24.57
-15.62
-7.90
-1.74
3.04
6.80
9.84
12.25
13.93
14.82
15.01
14.81
14.61
14.79
15.51
16.72
18.22
19.80
21.28
22.62
23.80
24.77
25.38
25.41
24.66
23.09
20.84
18.25
15.67
13.37
11.38
9.56
7.64
5.36
2.61
-0.58
-4.03
-7.49
-10.73
-13.60
-16.06
-18.30
-20.67
-23.62
-27.52
-32.50
-38.26
-44.05
-48.81
-51.36
-50.79
-46.78
-39.73
-30.72
-21.11
-12.18
-4.76
0.96
5.27
8.67
11.50
13.91
15.79
17.04
17.69
18.00
18.35
19.06
20.22
21.73
23.31
24.74
25.93
26.88
27.65
28.25
28.55
28.35
27.48
25.87
23.56
20.76
17.78
14.89
12.34
10.14
8.16
6.09
3.59
0.44
-3.29
-7.27
-11.02
-14.12
-16.45
-18.28
-20.13
-22.64
-26.27
-31.10
-36.79
-42.55
-47.34
-50.08
-49.97
-46.69
-40.54
-32.31
-23.13
-14.09
-6.03
0.58
5.67
9.45
12.23
14.30
15.88
17.08
17.96
18.58
19.07
19.62
20.38
21.46
22.77
24.18
25.49
26.56
27.37
27.88
28.10
27.93
27.25
25.95
24.01
21.52
18.65
15.66
12.79
10.21
7.94
5.85
3.72
1.31
-1.55
-4.79
-8.13
-11.23
-13.84
-15.95
-17.83
-19.96
-22.83
-26.73
-31.64
-37.19
-42.72
-47.33
-50.09
-50.22
-47.27
-41.30
-32.93
-23.22
-13.38
-4.51
2.70
7.97
11.48
13.59
14.69
15.13
15.14
14.93
14.73
14.83
15.42
16.64
