1621015991.00
64.000000
-0.00
-0.00
-0.00
-0.00
-0.00
-0.00
-0.00
-0.00
-0.00
-0.00
0.00
0.01
0.01
-0.00
-0.03
-0.05
-0.05
0.00
0.13
0.36
0.66
1.01
1.37
1.72
2.06
2.40
2.79
3.24
3.80
4.42
5.06
5.66
6.20
6.68
7.15
7.68
8.31
9.14
10.09
11.04
11.88
12.56
13.14
13.76
14.65
15.96
17.91
20.32
22.90
25.38
27.58
29.57
31.68
34.32
37.81
42.54
48.15
54.10
59.83
64.97
69.58
74.14
79.34
85.71
93.76
103.00
112.62
121.73
129.77
136.75
143.30
150.75
157.77
166.64
177.95
191.79
206.97
220.57
228.25
225.36
208.53
176.87
132.76
80.05
23.07
-34.94
-92.44
-149.16
-205.23
-260.37
-313.74
-363.87
-409.83
-450.89
-486.48
-515.69
-537.16
-549.12
-549.83
-538.20
-513.99
-478.40
-433.55
-382.07
-326.57
-269.33
-212.05
-156.01
-102.23
-51.58
-5.03
36.54
72.47
102.49
126.74
145.73
160.17
170.76
178.13
182.68
184.70
184.41
182.08
178.07
172.79
166.64
159.97
153.03
145.96
138.83
131.69
124.58
117.56
110.71
104.09
97.76
91.75
86.07
80.75
75.78
71.18
66.95
63.10
59.64
56.56
53.88
51.57
49.66
48.11
46.92
46.04
45.40
44.92
44.45
43.84
42.91
41.47
39.38
36.51
32.82
28.31
23.04
17.15
10.86
4.42
-1.90
-7.83
-13.13
-17.62
-21.18
-23.72
-25.27
-25.89
-25.68
-24.80
-23.37
-21.54
-19.45
-17.19
-14.82
-12.39
-9.93
-7.47
-5.02
-2.57
-0.10
2.40
4.95
7.59
10.35
13.19
16.10
19.07
22.11
25.22
28.43
31.76
35.26
38.98
42.86
46.85
50.94
55.13
59.43
63.90
68.55
73.47
78.74
84.23
89.83
95.51
101.23
106.98
112.76
118.57
124.44
130.41
136.21
141.62
146.39
150.31
153.06
154.29
153.47
149.91
144.91
138.98
132.42
125.46
118.28
111.04
103.86
96.88
90.25
84.13
78.37
72.87
67.58
62.45
57.48
52.66
48.02
43.61
39.53
35.65
31.92
28.32
24.86
21.57
18.49
15.65
13.11
10.92
9.01
7.30
5.77
4.39
3.14
2.01
1.01
0.14
-0.58
-1.20
-1.75
-2.27
-2.77
-3.26
-3.75
-4.24
-4.70
-5.15
-5.55
-5.90
-6.19
-6.40
-6.52
-6.54
-6.46
-6.30
-6.07
-5.79
-5.50
-5.23
-4.97
-4.75
-4.56
-4.37
-4.19
-4.02
-3.85
-3.73
-3.68
-3.73
-3.88
-4.16
-4.54
-5.02
-5.58
-6.24
-6.99
-7.82
-8.71
-9.63
-10.51
-11.30
-11.97
-12.54
-13.07
-13.66
-14.43
-15.43
-16.68
-18.14
-19.72
-21.37
-23.08
-24.93
-27.06
-29.60
-32.60
-35.99
-39.55
-43.05
-46.31
-49.34
-52.37
-55.75
-59.83
-64.83
-70.71
-77.17
-83.84
-90.43
-96.95
-103.71
-111.25
-120.09
-130.52
-142.40
-155.34
-168.76
-182.16
-195.41
-208.64
-222.31
-237.13
-254.04
-274.00
-297.52
-324.05
-351.57
-376.62
-395.12
-403.60
-400.32
-385.71
-362.00
-332.14
-298.87
-264.17
-229.36
-195.50
-163.75
-135.27
-110.88
-90.75
-74.31
-60.53
-48.39
-37.22
-26.77
-17.15
-8.53
-0.93
5.80
11.97
17.85
23.58
29.11
34.21
38.56
41.85
43.90
44.64
44.26
43.08
41.54
40.00
38.58
37.17
35.46
33.09
29.95
26.18
22.18
18.45
15.33
12.93
11.00
9.04
6.47
2.78
-2.30
-8.66
-15.81
-22.80
-28.47
-31.54
-30.92
-26.10
-17.31
-5.54
7.71
20.81
32.46
41.83
48.64
52.97
55.02
55.07
53.38
50.39
46.72
43.07
40.09
38.13
37.27
37.19
37.44
37.61
37.49
37.15
36.77
36.50
36.28
35.83
34.74
32.72
29.75
26.06
22.10
18.25
14.75
11.59
8.64
5.79
2.91
-0.12
-3.45
-7.29
-11.80
-16.87
-22.02
-26.33
-28.67
-28.06
-24.00
-16.69
-7.00
3.75
14.17
23.15
30.02
34.59
36.97
37.45
36.34
33.99
30.76
27.09
23.51
20.48
18.34
17.25
17.15
17.82
18.98
20.30
21.45
22.11
22.03
21.01
19.09
16.46
13.44
10.36
7.40
4.53
1.54
-1.85
-5.87
-10.57
-15.75
-20.90
-25.22
-27.83
-27.91
-24.97
-19.03
-10.61
-0.78
9.20
18.11
25.00
29.39
31.26
30.92
28.89
25.68
21.76
17.57
13.55
10.23
8.01
7.07
7.21
7.95
8.67
8.84
8.28
7.06
5.42
3.59
1.58
-0.66
-3.28
-6.44
-10.29
-14.84
-20.02
-25.47
-30.57
-34.38
-35.93
-34.45
-29.66
-21.88
-11.95
-1.07
9.50
18.80
26.18
31.43
34.55
35.71
35.11
32.98
29.63
25.54
21.30
17.54
14.74
13.02
12.18
11.77
11.26
10.28
8.70
6.53
3.91
0.99
-2.17
-5.52
-9.08
-12.89
-17.08
-21.81
-27.17
-33.03
-38.86
-43.73
-46.52
-46.14
-42.02
-34.21
-23.51
-11.17
1.35
12.84
22.39
29.58
34.33
36.82
37.29
36.06
33.48
29.99
26.11
22.37
19.20
16.82
15.25
14.26
13.54
12.83
11.91
10.64
8.91
6.71
4.11
1.28
-1.53
-4.18
-6.69
-9.34
-12.56
-16.77
-22.14
-28.51
-35.26
-41.43
-45.84
-47.37
-45.18
-39.05
-29.38
-17.21
-4.06
8.51
19.14
27.02
31.89
34.11
34.33
33.30
31.67
29.87
28.09
26.38
24.73
23.16
21.74
20.54
19.62
18.96
18.44
17.91
17.16
15.96
14.19
11.78
8.81
5.45
1.88
-1.81
-5.67
-9.84
-14.50
-19.79
-25.74
-32.17
-38.62
-44.30
-48.18
-49.08
-46.07
-38.83
-27.85
-14.47
-0.45
12.50
23.16
31.05
36.27
39.26
40.48
40.30
39.06
37.14
35.01
33.16
31.95
31.53
31.79
32.35
32.84
32.85
32.19
30.90
29.14
27.18
25.14
22.97
20.46
17.36
13.54
9.11
4.41
-0.16
-4.23
-7.66
-10.57
-13.26
-16.16
-19.71
-24.24
-29.86
-36.29
-42.75
-48.11
-50.98
-50.20
-45.19
-36.19
-24.21
-10.76
2.50
14.21
23.51
30.02
33.77
35.02
34.20
31.83
28.55
25.06
21.98
19.78
18.67
18.56
19.24
20.33
21.54
22.59
23.38
23.88
24.04
23.79
22.95
21.29
18.68
15.10
10.85
6.32
1.98
-2.01
-5.76
-9.66
-14.17
-19.60
-25.87
-32.43
-38.37
-42.54
-43.89
-41.66
-35.64
-26.33
-14.77
-2.44
9.16
18.81
25.80
29.95
31.58
31.18
29.32
26.52
23.18
19.68
16.39
13.63
11.65
10.57
10.33
10.70
11.34
11.93
12.17
11.89
11.04
9.66
7.86
5.76
3.42
0.81
-2.13
-5.54
-9.51
-14.13
-19.36
-25.01
-30.56
-35.25
-38.11
-38.15
-34.72
-27.73
-17.88
-6.41
5.06
15.11
22.75
27.67
30.08
30.52
29.56
27.64
25.03
21.93
18.58
15.36
12.66
10.82
9.91
9.79
10.12
10.53
10.65
10.26
9.19
7.41
4.91
1.83
-1.67
-5.40
-9.26
-13.22
-17.44
-22.16
-27.57
-33.68
-40.06
-45.84
-49.78
-50.54
-47.16
-39.44
-28.14
-14.68
-0.87
11.73
22.04
29.69
34.69
37.37
38.02
37.00
34.70
31.58
28.17
24.96
22.23
20.07
18.38
17.02
15.92
15.07
14.50
14.15
13.82
13.12
11.72
9.34
5.97
1.84
-2.71
-7.23
-11.54
-15.57
-19.50
-23.57
-28.06
-33.16
-38.90
-45.07
-51.03
-55.70
-57.70
-55.75
-49.10
-38.06
-23.92
-8.71
5.61
17.59
26.71
33.12
37.32
39.75
40.61
40.03
38.28
35.84
33.35
31.37
30.15
29.56
29.19
28.64
27.67
26.35
24.89
23.54
22.47
21.56
20.56
19.11
16.88
13.70
9.66
5.03
0.29
-4.14
-7.93
-11.06
-13.71
-16.26
-19.17
-22.84
-27.56
-33.40
-40.11
-47.05
-53.12
-56.92
-57.16
-53.01
-44.45
-32.37
-18.36
-4.17
8.68
19.24
27.17
32.60
35.87
37.41
37.54
36.61
35.01
33.14
31.38
30.03
29.18
28.73
28.50
28.23
27.76
27.02
26.04
24.84
23.47
21.89
20.07
17.93
15.37
12.31
8.69
4.57
0.07
-4.50
-8.80
-12.57
-15.68
-18.24
-20.55
-23.02
-26.13
-30.23
-35.45
-41.48
-47.58
-52.50
-54.89
-53.54
-47.86
-38.12
-25.43
-11.37
2.38
14.43
23.95
30.60
34.46
35.79
34.99
32.59
29.27
25.74
22.69
20.61
19.63
19.58
20.03
20.55
20.82
20.76
20.53
20.31
20.10
19.70
18.67
16.66
13.54
9.56
5.26
1.20
-2.24
-5.04
-7.55
-10.29
-13.68
-18.01
-23.22
-28.97
-34.61
-39.18
-41.57
-40.75
-36.12
-27.71
-16.42
-3.68
8.78
19.46
27.38
32.19
34.08
33.56
31.26
27.77
23.64
19.30
15.18
11.65
9.06
7.59
7.15
7.47
8.05
8.41
8.20
7.33
5.94
4.35
2.75
1.18
-0.54
-2.73
-5.65
-9.45
-14.16
-19.67
-25.79
-32.14
-38.05
-42.56
-44.50
-42.84
-37.11
-27.64
-15.62
-2.72
9.33
19.26
26.42
30.70
32.39
31.90
29.55
25.77
21.06
16.13
11.73
8.53
6.82
6.45
6.86
7.30
7.12
6.03
4.11
1.71
-0.76
-3.09
-5.31
-7.65
-10.43
-13.90
-18.24
-23.50
-29.61
-36.16
-42.37
-47.03
-48.76
-46.40
-39.55
-28.81
-15.65
-1.96
10.52
20.69
28.11
32.94
35.49
36.04
34.81
32.08
28.23
23.93
19.89
16.65
14.48
13.27
12.67
12.23
11.51
10.19
8.15
5.42
2.22
-1.12
-4.32
-7.20
-9.86
-12.71
-16.34
-21.25
-27.61
-35.05
-42.60
-49.03
-53.02
-53.59
-50.29
-43.22
-33.05
-20.76
-7.66
4.99
15.98
24.45
30.03
32.80
33.28
32.15
30.07
27.52
24.76
21.99
19.40
17.24
15.72
14.89
14.62
14.62
14.55
14.18
13.44
12.30
10.75
8.69
5.99
2.55
-1.60
-6.33
-11.45
-16.87
-22.67
-28.94
-35.61
-42.26
-47.98
-51.54
-51.70
-47.68
-39.48
-27.99
-14.75
-1.52
10.30
19.91
27.20
32.48
36.17
38.44
39.29
38.68
36.76
34.04
31.29
29.22
28.25
28.31
28.90
29.43
29.44
28.86
27.93
26.97
26.07
24.96
23.14
20.13
15.78
10.42
4.74
-0.59
-5.13
-8.86
-12.13
-15.37
-18.96
-23.12
-27.98
-33.64
-40.04
-46.82
-53.12
-57.60
-58.79
-55.60
-47.79
-36.08
-21.93
-7.09
6.91
19.06
28.80
35.99
40.61
42.80
42.80
41.11
38.38
35.33
32.65
30.76
29.84
29.83
30.50
31.56
32.71
33.68
34.28
34.41
34.07
33.32
32.26
30.91
29.27
27.20
24.51
21.00
16.56
11.19
5.16
-1.11
-7.08
-12.28
-16.45
-19.63
-22.17
-24.61
-27.51
-31.33
-36.23
-41.99
-47.91
-52.79
-55.23
-53.95
-48.26
-38.35
-25.30
-10.75
3.54
16.17
26.27
33.45
37.73
39.34
38.69
36.44
33.34
30.23
27.78
26.34
25.90
26.14
26.56
26.68
26.23
25.07
23.31
21.15
18.71
16.08
13.12
9.63
5.40
0.42
-5.09
-10.67
-15.76
-19.97
-23.19
-25.65
-27.88
-30.42
-33.64
-37.61
-42.08
-46.55
-50.44
-53.06
-53.76
-51.87
-46.92
-38.75
-27.75
-14.80
-1.25
11.44
22.12
30.07
35.14
37.67
38.15
37.15
35.12
32.42
29.39
26.36
23.64
21.45
19.86
18.76
17.83
16.79
15.47
13.98
12.67
11.87
11.71
11.84
11.58
10.22
7.39
3.37
-1.08
-5.06
-8.07
-10.23
-12.24
-15.05
-19.40
-25.52
-33.02
-40.99
-48.17
-53.22
-54.83
-52.14
-44.94
-33.84
-20.21
-5.79
7.66
18.89
27.19
32.38
34.75
34.72
32.90
29.95
26.57
23.40
20.86
19.11
17.98
17.19
16.48
15.74
15.03
14.48
14.14
13.91
13.53
12.66
11.02
8.46
5.08
1.12
-3.06
-7.07
-10.61
-13.64
-16.39
-19.28
-22.81
-27.29
-32.52
-37.77
-41.87
-43.45
-41.52
-35.74
-26.56
-15.16
-3.09
8.07
17.17
23.59
27.33
28.76
28.34
26.53
23.64
19.99
15.99
12.14
8.97
6.84
5.81
5.60
5.72
5.68
5.22
4.24
2.80
1.05
-0.91
-2.99
-5.15
-7.36
-9.66
-12.19
-15.09
-18.53
-22.57
-27.08
-31.72
-35.89
-38.77
-39.48
-37.32
-31.95
-23.70
-13.45
-2.47
7.85
16.38
22.53
26.19
27.65
27.36
25.79
23.36
20.42
17.30
14.34
11.87
10.10
9.12
8.82
8.96
9.18
9.15
8.64
7.52
5.88
3.84
1.55
-0.95
-3.66
-6.62
-9.85
-13.36
-17.21
-21.53
-26.58
-32.46
-38.90
-45.10
-49.70
-51.22
-48.50
-41.27
-30.31
-17.24
-3.99
7.76
17.00
23.45
27.40
29.31
29.61
28.62
26.60
23.88
20.83
17.89
15.38
13.49
12.27
11.61
11.30
11.05
10.59
9.63
7.99
5.70
3.00
0.15
-2.59
-5.17
-7.74
-10.65
-14.23
-18.75
-24.27
-30.57
-37.08
-42.86
-46.75
-47.56
-44.54
-37.59
-27.36
-15.18
-2.57
9.03
18.60
25.69
30.28
32.64
33.19
32.35
30.53
28.13
25.51
23.01
20.91
19.33
18.28
17.67
17.32
17.04
16.57
15.65
14.12
11.91
9.13
6.05
2.92
-0.20
-3.49
-7.31
-11.97
-17.54
-23.74
-30.16
-36.34
-41.85
-46.27
-49.04
-49.31
-46.27
-39.44
-29.02
-16.16
-2.61
9.76
19.49
25.94
29.34
30.41
30.01
28.83
27.17
25.13
22.77
20.28
18.04
16.45
15.77
15.95
16.73
17.67
18.38
18.57
18.08
16.89
14.96
12.31
8.99
5.13
0.92
-3.45
-7.87
-12.39
-17.19
-22.45
-28.20
-34.16
-39.60
-43.52
-44.80
-42.59
-36.58
-27.19
-15.44
-2.81
9.15
19.17
26.40
30.59
31.95
31.00
28.44
25.00
21.33
17.95
15.20
13.26
12.16
11.80
11.97
12.42
12.86
12.94
12.42
11.16
9.21
6.83
4.36
2.04
-0.08
-2.23
-4.81
-8.22
-12.66
-18.06
-24.00
-29.77
-34.44
-36.97
-36.43
-32.34
-24.82
-14.73
-3.43
7.56
17.00
24.14
28.78
31.08
31.25
29.53
26.13
21.48
16.25
11.31
7.52
5.36
4.83
5.41
6.33
6.85
6.49
5.17
3.07
0.52
-2.18
-4.85
-7.51
-10.23
-13.22
-16.67
-20.72
-25.44
-30.67
-35.96
-40.53
-43.33
-43.24
-39.47
-31.87
-21.07
-8.44
4.35
15.71
24.60
30.62
33.91
34.87
33.97
31.57
28.09
23.98
19.86
16.33
13.85
12.60
12.39
12.78
13.19
13.20
12.57
11.30
9.51
7.34
4.92
2.28
-0.64
-3.91
-7.58
-11.69
-16.23
-21.18
-26.48
-32.02
-37.40
-41.90
-44.52
-44.17
-40.13
-32.34
-21.56
-9.26
2.85
13.28
21.16
26.33
29.11
30.01
29.49
27.82
25.20
21.86
18.23
14.90
12.41
11.13
11.01
11.65
12.39
12.60
11.87
10.12
7.58
4.59
1.49
-1.54
-4.49
-7.42
-10.53
-14.01
-18.01
-22.71
-28.08
-33.86
-39.44
-43.78
-45.69
-44.06
-38.38
-28.92
-16.88
-3.99
7.99
17.75
24.71
28.92
30.80
30.84
29.43
26.86
23.49
19.79
16.38
13.79
12.34
11.98
12.40
13.12
13.58
13.43
12.48
10.80
8.64
6.25
3.75
1.05
-2.10
-5.89
-10.24
-14.80
-19.19
-23.19
-27.02
-31.16
-35.97
-41.23
-45.90
-48.37
-47.11
-41.38
-31.56
-19.11
-5.99
5.95
15.50
22.26
26.40
28.33
28.44
27.03
24.37
20.87
17.17
14.01
11.95
11.11
11.17
11.45
11.35
10.62
9.48
8.42
7.78
7.44
6.90
5.47
2.83
-0.73
-4.33
-7.03
-8.32
-8.57
-8.98
-11.10
-16.09
-24.03
-33.69
-42.76
-48.70
-49.62
-45.00
-35.77
-23.87
-11.44
-0.14
9.17
16.34
21.48
24.77
26.22
25.85
23.81
20.49
16.43
12.24
8.47
5.55
3.77
3.21
3.70
4.77
5.85
6.38
6.04
4.82
2.97
0.82
-1.40
-3.65
-6.08
-8.90
-12.35
-16.58
-21.66
-27.55
-33.94
-40.11
-45.04
-47.43
-46.20
-40.86
-31.78
-20.16
-7.70
3.98
13.71
20.99
25.84
28.52
29.27
28.25
25.64
21.81
17.39
13.20
10.03
8.35
8.16
8.94
9.87
10.13
9.22
7.14
4.33
1.39
-1.22
-3.45
-5.65
-8.37
-12.12
-17.14
-23.33
-30.32
-37.55
-44.20
-49.23
-51.47
-49.96
-44.23
-34.65
-22.37
-9.08
3.55
14.23
22.34
27.78
30.76
31.58
30.48
27.79
23.95
19.57
15.41
12.11
10.12
9.40
9.57
9.94
9.85
8.86
6.83
4.00
0.67
-2.83
-6.36
-9.95
-13.80
-18.14
-23.22
-29.12
-35.79
-42.81
-49.43
-54.61
-57.12
-55.88
-50.28
-40.43
-27.17
-12.01
3.28
17.08
28.17
35.97
40.49
42.12
41.48
39.19
35.85
32.00
28.12
24.68
22.02
20.30
19.49
19.32
19.38
19.24
18.51
16.96
14.58
11.53
8.00
4.17
0.04
-4.48
-9.57
-15.43
-22.19
-29.80
-38.04
-46.36
-53.85
-59.34
-61.55
-59.44
-52.56
-41.26
-26.64
-10.30
6.07
20.97
33.35
42.62
48.58
51.37
51.41
49.35
45.94
42.01
38.20
34.96
32.43
30.59
29.25
28.19
27.30
26.52
25.84
25.15
24.23
22.74
20.37
16.94
12.60
7.73
2.84
-1.71
-5.82
-9.69
-13.74
-18.39
-23.93
-30.44
-37.78
-45.49
-52.66
-58.09
-60.35
-58.24
-51.24
-39.67
-24.77
-8.31
7.89
22.37
34.25
43.18
49.16
52.36
53.09
51.84
49.23
46.00
42.85
40.25
38.40
37.22
36.46
35.89
35.28
34.55
33.62
32.50
31.20
29.75
28.14
26.30
24.12
21.45
18.20
14.31
9.79
4.71
-0.79
-6.49
-12.10
-17.32
-21.97
-26.03
-29.77
-33.63
-38.10
-43.49
-49.70
-56.09
-61.54
-64.59
-63.81
-58.32
-48.04
-33.84
-17.33
-0.48
15.02
27.87
37.44
43.46
46.00
45.35
42.05
36.96
31.22
25.99
22.11
19.93
19.29
19.63
20.36
21.04
21.43
21.53
21.31
20.70
19.57
17.74
15.15
11.78
7.75
3.29
-1.35
-5.84
-9.97
-13.66
-17.07
-20.62
-24.85
-30.17
-36.56
-43.38
-49.43
-53.10
-52.93
-48.02
-38.35
-24.88
-9.28
6.43
20.45
31.53
39.08
43.15
44.25
43.01
40.06
35.91
31.07
25.98
21.17
17.15
14.31
12.82
12.58
13.21
14.10
14.63
14.33
13.00
10.73
7.74
4.34
0.72
-3.02
-6.86
-10.78
-14.85
-19.15
-23.95
-29.49
-35.81
-42.48
-48.40
-52.05
-51.85
-46.89
-37.23
-24.03
-9.23
5.18
17.55
27.01
33.39
37.00
38.28
37.63
35.42
32.09
28.17
24.32
21.07
18.75
17.38
16.76
16.60
16.61
16.55
16.19
15.30
13.66
11.13
7.73
3.68
-0.65
-4.95
-9.07
-13.14
-17.49
-22.53
-28.58
-35.62
-43.24
-50.47
-55.95
-58.17
-55.86
-48.47
-36.44
-21.29
-5.17
9.68
21.63
29.96
34.85
37.02
37.29
36.20
34.00
30.86
27.00
22.93
19.23
16.43
14.72
13.95
13.65
13.31
12.53
11.13
9.16
6.74
4.05
1.17
-1.86
-5.08
-8.55
-12.38
-16.77
-21.93
-28.11
-35.30
-43.09
-50.52
-56.13
-58.22
-55.49
-47.44
-34.71
-18.93
-2.27
13.12
25.73
34.86
40.53
43.22
43.58
42.17
39.53
36.15
32.52
29.05
26.01
23.46
21.30
19.41
17.77
16.44
15.49
14.82
14.12
12.94
10.79
7.47
3.08
-1.97
-7.17
-12.10
-16.60
-20.79
-25.04
-29.83
-35.60
-42.45
-50.05
-57.41
-62.97
-65.07
-62.38
-54.43
-41.79
-25.99
-9.05
7.02
20.64
30.93
37.63
41.00
41.61
40.19
37.49
34.17
30.70
27.40
24.43
21.89
19.83
18.28
17.23
16.70
16.63
16.93
17.31
17.38
16.63
14.61
11.10
6.29
0.68
-5.05
-10.29
-14.78
-18.74
-22.80
-27.73
-34.08
-41.87
-50.36
-58.09
-63.27
-64.23
-60.02
-50.74
-37.50
-22.11
-6.49
7.79
19.74
28.98
35.44
39.16
40.22
38.83
35.37
30.49
24.96
19.56
14.97
11.62
9.75
9.36
10.24
11.97
13.92
15.43
15.94
15.10
12.95
9.77
6.06
2.31
-1.19
-4.43
-7.71
-11.48
-16.24
-22.36
-29.81
-38.17
-46.43
-53.15
-56.71
-55.75
-49.63
-38.73
-24.42
-8.75
6.13
18.56
27.67
33.43
36.35
37.09
36.16
33.83
30.25
25.71
20.79
16.24
12.82
10.90
10.31
10.45
10.47
9.75
8.02
5.47
2.46
-0.61
-3.53
-6.31
-9.19
-12.43
-16.27
-20.91
-26.40
-32.59
-38.92
-44.42
-47.78
-47.69
-43.28
-34.56
-22.48
-8.66
4.98
16.88
26.06
32.19
35.39
35.86
33.86
29.65
23.79
17.16
10.87
5.98
3.11
2.26
2.78
3.69
4.14
3.62
2.16
0.17
-1.87
-3.72
-5.44
-7.52
-10.56
-15.14
-21.53
-29.49
-38.15
-46.19
-52.02
-54.19
-51.82
-44.81
-33.89
-20.47
-6.23
7.23
18.64
27.24
32.72
35.12
34.71
31.93
27.36
21.78
16.05
11.03
7.35
5.26
4.53
4.53
4.57
4.12
3.01
1.37
-0.48
-2.34
-4.27
-6.67
-10.11
-15.17
-22.18
-30.98
-40.76
-50.11
-57.30
-60.68
-59.14
-52.52
-41.60
-27.92
-13.24
0.86
13.31
23.57
31.50
37.05
40.18
40.84
39.17
35.62
30.99
26.19
22.06
19.03
17.12
15.93
14.93
13.63
11.76
9.27
6.33
3.10
-0.24
-3.65
-7.29
-11.45
-16.53
-22.91
-30.68
-39.41
-48.10
-55.26
-59.19
-58.57
-52.73
-42.03
-27.68
-11.48
4.68
19.16
30.97
39.66
45.27
48.13
48.69
47.34
44.50
40.58
36.13
31.79
28.21
25.87
24.90
25.00
25.50
25.62
24.72
22.54
19.21
15.14
10.76
6.33
1.86
-2.84
-8.00
-13.83
-20.43
-27.83
-35.92
-44.33
-52.31
-58.68
-61.95
-60.79
-54.45
-43.14
-28.03
-10.95
6.11
21.47
34.00
43.19
49.00
51.71
51.79
49.85
46.59
42.72
38.82
35.32
32.38
30.04
28.24
26.88
25.89
25.17
24.54
23.71
22.35
20.13
16.90
12.79
8.14
3.39
-1.14
-5.33
-9.35
-13.57
-18.50
-24.54
-31.80
-39.91
-47.94
-54.49
-57.91
-56.83
-50.57
-39.41
-24.60
-8.02
8.35
22.87
34.56
43.05
48.40
50.92
51.04
49.19
45.96
41.96
37.92
34.42
31.83
30.11
29.01
28.09
27.02
25.69
24.15
22.53
20.87
19.01
16.65
13.47
9.32
4.33
-1.11
-6.47
-11.24
-15.09
-18.05
-20.52
-23.23
-26.95
-32.18
-38.85
-46.11
-52.46
-56.14
-55.64
-50.18
-40.01
-26.30
-10.86
4.43
17.98
28.78
36.40
40.88
42.49
41.66
38.88
34.73
29.91
25.22
21.34
18.69
17.35
17.03
17.25
17.57
17.69
17.51
16.89
15.67
13.61
10.53
6.49
1.80
-2.97
-7.34
-11.09
-14.35
-17.62
-21.42
-26.22
-32.12
-38.70
-45.03
-49.77
-51.47
-49.03
-42.02
-30.95
-17.22
-2.74
10.56
21.27
28.69
32.89
34.32
33.58
31.11
27.21
22.20
16.55
11.02
6.53
3.86
3.37
4.77
7.25
9.76
11.38
11.63
10.52
8.40
5.67
2.65
-0.55
-4.02
-7.84
-12.18
-17.17
-22.97
-29.54
-36.50
-42.91
-47.44
-48.70
-45.72
-38.40
-27.62
-14.93
-2.04
9.60
19.05
25.95
30.25
32.09
31.64
29.19
25.12
20.02
14.66
9.85
6.28
4.32
3.91
4.51
5.32
5.65
5.12
3.85
2.22
0.59
-0.95
-2.68
-5.11
-8.69
-13.58
-19.64
-26.52
-33.72
-40.67
-46.63
-50.63
-51.56
-48.49
-41.07
-29.85
-16.15
-1.81
11.35
21.98
29.49
33.87
35.60
35.25
33.36
30.33
26.47
22.11
17.66
13.64
10.57
8.76
8.18
8.49
9.04
9.21
8.55
6.98
4.67
1.90
-1.06
-4.12
-7.37
-11.00
-15.23
-20.34
-26.50
-33.69
-41.50
-49.07
-55.01
-57.78
-56.14
-49.60
-38.63
-24.63
-9.47
4.99
17.36
26.89
33.40
37.03
38.16
37.26
34.86
31.53
27.90
24.50
21.65
19.47
17.88
16.69
15.74
14.96
14.27
13.62
12.83
11.60
9.66
6.78
2.95
-1.64
-6.65
-11.71
-16.56
-21.12
-25.52
-30.10
-35.24
-41.24
-48.03
-54.95
-60.75
-63.78
-62.57
-56.32
-45.31
-30.93
-15.08
0.30
13.84
24.88
33.29
39.21
42.66
43.69
42.39
39.20
34.92
30.48
26.78
24.22
22.78
22.00
21.32
20.45
19.36
18.26
17.34
16.55
15.49
13.64
10.59
6.24
0.94
-4.70
-10.04
-14.68
-18.50
-21.77
-24.92
-28.51
-32.97
-38.58
-45.14
-52.00
-57.93
-61.48
-61.25
-56.42
-47.02
-34.01
-19.04
-3.94
9.62
20.60
28.60
33.72
36.41
37.13
36.36
34.43
31.70
28.54
25.36
22.58
20.47
19.18
18.63
18.61
18.82
19.03
19.10
18.96
18.59
17.83
16.42
14.05
10.49
5.79
0.37
-5.12
-10.05
-14.12
-17.52
-20.84
-24.88
-30.27
-37.17
-45.08
-52.92
-59.21
-62.34
-61.05
-54.74
-43.75
-29.35
-13.41
2.04
15.32
25.37
31.88
35.10
35.57
33.98
30.93
26.95
22.58
18.27
14.44
11.47
9.51
8.61
8.59
9.14
9.92
10.55
10.75
10.29
9.10
7.16
4.65
1.75
-1.37
-4.61
-8.01
-11.75
-16.06
-21.13
-27.03
-33.50
-39.88
-45.10
-47.83
-46.87
-41.60
-32.25
-19.96
-6.50
6.29
16.98
24.80
29.64
31.77
31.60
29.52
25.98
21.52
16.87
12.87
10.19
9.12
9.45
10.50
11.45
11.64
10.79
9.06
6.85
4.51
2.14
-0.44
-3.53
-7.36
-12.03
-17.50
-23.61
-30.09
-36.46
-41.86
-45.28
-45.62
-42.24
-35.10
-24.92
-12.96
-0.64
10.76
20.35
27.52
31.91
33.39
32.03
28.27
22.88
16.99
11.67
7.83
5.83
5.43
5.95
6.52
6.38
5.15
2.88
-0.05
-3.21
-6.24
-9.13
-12.07
-15.50
-19.87
-25.45
-32.20
-39.60
-46.64
-51.97
-54.19
-52.19
-45.61
-34.96
-21.49
-6.95
6.95
18.86
27.97
33.97
36.90
37.00
34.60
30.25
24.70
18.95
13.97
10.52
8.83
8.55
8.91
9.02
8.26
6.47
3.89
0.99
-1.85
-4.52
-7.23
-10.40
-14.55
-20.01
-26.86
-34.79
-42.99
-50.25
-55.07
-56.04
-52.22
-43.50
-30.73
-15.54
0.12
14.51
26.44
35.33
41.14
44.06
44.31
42.17
37.99
32.38
26.21
20.49
16.12
13.59
12.78
13.00
13.23
12.56
10.52
7.19
3.18
-0.74
-4.07
-6.81
-9.46
-12.79
-17.61
-24.35
-32.86
-42.36
-51.42
-58.30
-61.26
-59.06
-51.34
-38.80
-23.02
-6.03
10.18
24.19
35.17
42.83
47.16
48.34
46.68
42.75
37.44
31.82
26.90
23.34
21.34
20.54
20.40
20.24
19.57
18.09
15.73
12.63
9.12
5.50
2.04
-1.27
-4.72
-8.90
-14.39
-21.52
-30.01
-38.97
-46.91
-52.16
-53.29
-49.48
-40.77
-28.05
-12.90
2.81
17.26
29.13
37.70
42.89
45.06
44.75
42.48
38.68
33.80
28.46
23.39
19.36
16.83
15.78
15.65
15.62
14.93
13.21
10.60
7.55
4.56
1.88
-0.57
-3.23
-6.67
-11.41
-17.65
-25.21
-33.38
-41.01
-46.63
-48.85
-46.69
-39.93
-29.22
-15.92
-1.72
11.81
23.47
32.59
38.81
42.01
42.15
39.38
34.17
27.44
20.45
14.51
10.51
8.68
8.50
9.05
9.40
9.02
7.87
6.36
4.91
3.72
2.60
1.06
-1.45
-5.42
-11.00
-18.09
-26.26
-34.79
-42.59
-48.39
-50.89
-49.10
-42.64
-31.99
-18.33
-3.35
11.24
24.04
34.11
40.94
44.33
44.35
41.30
35.80
28.82
21.53
15.11
10.44
7.90
7.29
7.94
8.95
9.50
9.09
7.61
5.33
2.64
-0.16
-3.04
-6.28
-10.32
-15.61
-22.34
-30.34
-38.94
-47.03
-53.14
-55.74
-53.59
-46.16
-33.86
-18.05
-0.77
15.82
29.97
40.66
47.62
51.12
51.64
49.66
45.66
40.17
33.91
27.75
22.48
18.64
16.28
15.01
14.17
13.13
11.52
9.21
6.37
3.20
-0.19
-3.81
-7.78
-12.27
-17.43
-23.35
-30.12
-37.69
-45.81
-53.81
-60.67
-64.96
-65.29
-60.60
-50.61
-36.01
-18.35
0.24
17.66
32.23
43.04
49.89
53.19
53.60
51.92
48.86
45.05
41.05
37.28
33.98
31.22
28.96
27.08
25.52
24.28
23.28
22.32
20.99
18.79
15.35
10.61
4.92
-1.09
-6.78
-11.77
-16.05
-20.10
-24.55
-30.13
-37.25
-45.77
-54.81
-62.77
-67.66
-67.57
-61.42
-49.28
-32.54
-13.51
5.28
21.76
34.73
43.93
49.73
52.77
53.67
52.90
50.84
47.87
44.46
41.18
38.53
36.81
36.00
35.81
35.77
35.44
34.55
33.01
30.89
28.27
25.22
21.78
17.99
13.93
9.63
5.15
0.51
-4.16
-8.62
-12.59
-15.81
-18.27
-20.23
-22.20
-24.78
-28.56
-33.90
-40.86
-49.13
-57.89
-65.77
-71.02
-71.86
-67.01
-56.31
-40.83
-22.76
-4.77
10.68
21.97
28.66
31.40
31.55
30.57
29.70
29.60
30.34
31.60
32.90
33.79
34.05
33.71
33.00
32.30
31.98
32.14
32.67
33.15
33.03
31.96
29.94
27.23
24.33
21.58
19.04
16.47
13.54
10.00
5.75
0.93
-4.31
-9.76
-15.24
-20.63
-25.78
-30.71
-35.62
-40.89
-46.87
-53.56
-60.36
-66.04
-68.98
-67.73
-61.50
-50.54
-36.13
-20.24
-4.96
8.02
17.76
24.03
27.17
27.71
26.24
23.33
19.54
15.55
12.04
9.63
8.59
8.83
9.94
11.38
12.67
13.61
14.21
14.58
14.76
14.55
13.65
11.71
8.61
4.55
0.06
-4.22
-7.77
-10.40
-12.36
-14.22
-16.69
-20.36
-25.48
-31.80
-38.48
-44.25
-47.60
-47.27
-42.59
-33.77
-21.92
-8.64
4.35
15.71
24.63
30.85
34.46
35.67
34.73
31.92
27.63
22.45
17.10
12.37
8.87
6.94
6.47
7.06
8.09
8.95
9.16
8.57
7.27
5.49
3.52
1.43
-0.86
-3.59
-7.09
-11.59
-17.16
-23.62
-30.50
-36.95
-41.91
-44.21
-42.89
-37.50
-28.34
-16.42
-3.34
9.18
19.66
27.12
31.20
31.99
29.93
25.62
19.77
13.20
6.78
1.35
-2.53
-4.64
-5.24
-4.90
-4.33
-4.11
-4.51
-5.49
-6.82
-8.31
-9.94
-11.92
-14.56
-18.21
-23.01
-28.85
-35.28
-41.48
-46.35
-48.70
-47.56
-42.41
-33.45
-21.60
-8.24
5.05
16.85
26.13
32.31
35.24
35.04
32.15
27.20
21.07
14.74
9.12
4.90
2.27
1.02
0.60
0.37
-0.16
-1.17
-2.65
-4.39
-6.27
-8.40
-11.07
-14.73
-19.76
-26.26
-33.86
-41.60
-48.09
-51.71
-51.12
-45.66
-35.62
-22.15
-7.05
7.83
20.95
31.34
38.68
43.02
44.59
43.63
40.37
35.25
28.92
22.33
16.47
12.16
9.71
8.89
9.00
9.19
8.77
7.39
5.09
2.17
-1.11
-4.56
-8.26
-12.40
-17.22
-22.96
-29.70
-37.35
-45.48
-53.26
-59.52
-62.85
-61.99
-56.20
-45.64
-31.36
-15.09
1.24
15.97
28.00
36.85
42.52
45.24
45.39
43.40
39.82
35.39
30.90
27.14
24.63
23.46
23.36
23.77
24.17
24.24
23.95
23.44
22.79
21.88
20.29
17.59
13.52
8.18
2.09
-4.07
-9.68
-14.46
-18.53
-22.27
-26.26
-31.08
-37.19
-44.66
-53.13
-61.57
-68.37
-71.67
-69.87
-62.16
-48.96
-31.78
-12.87
5.43
21.36
33.96
43.06
48.96
52.12
52.91
51.66
48.75
44.75
40.37
36.46
33.68
32.46
32.71
34.02
35.70
37.04
37.43
36.56
34.40
31.20
27.37
23.34
19.53
16.15
13.29
10.81
8.39
5.70
2.43
-1.60
-6.36
-11.60
-17.03
-22.44
-27.81
-33.38
-39.48
-46.40
-54.17
-62.30
-69.78
-75.14
-76.84
-73.63
-64.97
-51.29
-33.97
-15.01
3.43
19.53
32.08
40.65
45.41
46.85
45.60
42.32
37.72
32.55
27.58
23.51
20.86
19.76
20.04
21.22
22.77
24.17
25.21
25.86
26.19
26.25
25.90
24.87
22.77
19.41
14.84
9.43
3.75
-1.65
-6.37
-10.31
-13.60
-16.53
-19.48
-22.91
-27.20
-32.65
-39.17
-46.13
-52.31
-56.11
-56.01
-51.07
-41.33
-27.87
-12.47
2.85
16.34
26.86
33.94
37.71
38.64
37.43
34.83
31.51
28.09
24.96
22.33
20.25
18.66
17.46
16.64
16.20
16.13
16.33
16.55
16.47
15.71
14.03
11.38
7.93
4.01
0.03
-3.68
-6.96
-9.87
-12.66
-15.75
-19.65
-24.72
-30.96
-37.81
-44.03
-48.06
-48.35
-44.03
-35.15
-22.82
-8.82
4.92
16.82
25.89
31.81
34.72
35.05
33.34
30.18
26.16
21.83
17.71
14.13
11.31
9.34
8.16
7.65
7.61
7.84
8.08
8.10
7.70
6.73
5.17
3.18
1.00
-1.05
-2.74
-4.07
-5.32
-7.07
-9.90
-14.26
-20.10
-26.80
-33.11
-37.55
-38.76
-35.95
-29.16
-19.23
-7.59
4.22
14.78
23.15
28.81
31.66
31.92
29.98
26.43
21.94
17.20
12.83
9.32
6.90
5.63
5.29
5.53
5.89
5.93
5.30
3.85
1.68
-1.01
-3.86
-6.58
-9.08
-11.53
-14.30
-17.87
-22.53
-28.14
-34.08
-39.25
-42.48
-42.78
-39.73
-33.50
-24.90
-15.02
-5.01
4.11
11.65
17.13
20.29
21.09
19.67
16.43
11.99
7.21
2.88
-0.31
-2.10
-2.66
-2.45
-2.06
-1.86
-2.03
-2.41
-2.82
-3.23
-3.72
-4.59
-6.11
-8.44
-11.58
-15.39
-19.67
-24.08
-28.06
-30.83
-31.48
-29.30
-24.04
-16.14
-6.64
3.11
11.87
18.77
23.42
25.77
25.93
24.06
20.43
15.53
10.06
4.90
0.81
-1.80
-3.06
-3.48
-3.71
-4.26
-5.24
-6.47
-7.64
-8.58
-9.42
-10.50
-12.28
-15.12
-19.12
-24.00
-29.13
-33.67
-36.56
-36.92
-34.19
-28.35
-19.97
-10.13
-0.08
9.03
16.38
21.56
24.51
25.36
24.34
21.74
17.94
13.43
8.86
4.88
2.03
0.56
0.34
0.91
1.63
1.96
1.60
0.53
-1.06
-2.98
-5.19
-7.91
-11.46
-16.12
-21.82
-28.03
-33.74
-37.72
-38.76
-36.18
-29.96
-20.89
-10.30
0.26
9.52
16.66
21.41
23.86
24.23
22.77
19.77
15.60
10.89
6.39
2.75
0.28
-1.14
-2.02
-2.90
-4.15
-5.77
-7.48
-8.91
-9.88
-10.47
-11.07
-12.25
-14.57
-18.39
-23.69
-29.93
-36.12
-40.93
-43.01
-41.38
-35.72
-26.48
-14.89
-2.50
9.12
18.82
25.98
30.54
32.82
33.22
32.16
29.88
26.66
22.82
18.85
15.30
12.62
11.00
10.16
9.55
8.49
6.52
3.60
0.11
-3.42
-6.54
-9.12
-11.35
-13.62
-16.43
-20.12
-24.93
-30.83
-37.49
-44.13
-49.58
-52.53
-51.80
-46.88
-38.01
-26.25
-13.08
-0.06
11.57
20.99
27.85
32.18
34.19
34.33
33.05
30.90
28.39
25.94
23.86
22.25
21.11
20.32
19.74
19.32
19.05
18.93
18.81
18.41
17.25
14.91
11.23
6.42
1.06
-4.19
-8.81
-12.66
-16.07
-19.56
-23.70
-28.91
-35.30
-42.61
-50.26
-57.20
-62.12
-63.65
-60.70
-52.90
-40.81
-25.80
-9.69
5.74
19.15
29.83
37.58
42.51
44.88
45.03
43.52
41.05
38.46
36.41
35.25
34.90
34.97
35.03
34.79
34.28
33.68
33.14
32.63
31.95
30.80
28.92
26.22
22.70
18.51
13.81
8.79
3.69
-1.22
-5.70
-9.61
-13.04
-16.24
-19.56
-23.32
-27.70
-32.77
-38.57
-45.01
-51.78
-58.12
-62.82
-64.37
-61.46
-53.56
-41.17
-25.85
-9.71
5.22
17.54
26.70
32.84
36.43
38.01
38.01
36.79
34.77
32.43
30.26
28.65
27.81
27.73
28.27
29.23
30.39
31.49
32.24
32.35
31.62
29.97
27.50
24.46
21.11
17.62
14.06
10.41
6.63
2.78
-1.02
-4.60
-7.85
-10.82
-13.60
-16.46
-19.67
-23.50
-28.21
-33.87
-40.27
-46.79
-52.47
-56.10
-56.52
-52.94
-45.14
-33.64
-19.60
-4.57
9.81
22.16
31.53
37.51
40.18
40.02
37.63
33.74
29.05
24.25
19.91
16.50
14.29
13.28
13.25
13.76
14.40
14.79
14.69
14.02
12.78
10.98
8.66
5.85
2.69
-0.65
-3.98
-7.15
-10.23
-13.44
-17.19
-21.88
-27.71
-34.44
-41.31
-47.09
-50.35
-49.81
-44.82
-35.53
-22.96
-8.70
5.45
17.90
27.55
33.91
36.97
37.05
34.66
30.44
25.06
19.25
13.74
9.19
6.06
4.52
4.39
5.24
6.45
7.36
7.45
6.45
4.37
1.45
-1.97
-5.64
-9.39
-13.21
-17.25
-21.67
-26.65
-32.17
-37.90
-43.09
-46.63
-47.29
-44.09
-36.74
-25.81
-12.68
0.88
13.24
23.30
30.58
35.09
37.01
36.52
33.86
29.45
23.96
18.38
13.64
10.32
8.47
7.64
7.13
6.39
5.17
3.57
1.91
0.43
-0.84
-2.08
-3.75
-6.33
-10.30
-15.91
-23.12
-31.49
-40.14
-47.79
-52.93
-54.21
-50.71
-42.45
-30.40
-16.23
-1.90
10.92
21.22
28.62
33.15
34.95
34.17
31.05
26.07
20.09
14.16
9.25
5.92
4.18
3.61
3.56
3.47
3.02
2.22
1.28
0.50
0.04
-0.20
-0.59
-1.84
-4.78
-10.07
-17.85
-27.57
-37.94
-47.16
-53.40
-55.24
-52.02
-43.95
-31.98
-17.57
-2.38
12.03
24.33
33.57
39.28
41.52
40.79
37.88
33.64
28.85
24.12
19.90
16.47
13.91
12.03
10.44
8.68
6.41
3.56
0.34
-2.92
-6.02
-9.04
-12.35
-16.47
-21.85
-28.57
-36.35
-44.45
-51.74
-56.97
-58.90
-56.65
-49.88
-38.95
-24.89
-9.25
6.30
20.27
31.56
39.68
44.53
46.37
45.62
42.82
38.64
33.80
29.09
25.11
22.17
20.17
18.67
17.12
15.12
12.58
9.73
6.99
4.68
2.88
1.31
-0.61
-3.48
-7.80
-13.78
-21.28
-29.73
-38.16
-45.17
-49.16
-48.67
-42.80
-31.71
-16.69
0.11
16.30
29.90
39.85
45.93
48.51
48.15
45.33
40.48
34.23
27.42
21.18
16.53
14.00
13.49
14.25
15.18
15.40
14.48
12.51
9.95
7.28
4.71
2.13
-0.83
-4.60
-9.49
-15.57
-22.75
-30.63
-38.46
-45.08
-49.06
-49.05
-44.27
-34.83
-21.83
-7.11
7.36
19.98
29.78
36.40
39.84
40.22
37.78
32.93
26.42
19.47
13.42
9.33
7.62
7.86
8.95
9.66
9.15
7.26
4.60
1.94
-0.14
-1.59
-3.01
-5.23
-9.05
-14.79
-22.31
-30.87
-39.36
-46.37
-50.45
-50.36
-45.41
-35.71
-22.27
-6.72
9.05
23.30
34.81
42.88
47.33
48.35
46.42
42.27
36.76
30.86
25.35
20.84
17.55
15.38
14.03
13.12
12.39
11.68
11.01
10.40
9.72
8.65
6.60
2.97
-2.72
-10.43
-19.61
-29.08
-37.31
-42.64
-43.76
-40.00
-31.51
-19.33
-5.14
9.22
22.06
32.22
39.09
42.58
42.93
40.56
36.03
30.04
23.48
17.24
12.09
8.48
6.46
5.73
5.76
6.02
6.00
5.42
4.07
1.87
-1.27
-5.40
-10.59
-16.84
-23.97
-31.50
-38.50
-43.73
-45.76
-43.47
-36.38
-24.98
-10.61
4.85
19.38
31.32
39.64
44.03
44.74
42.46
38.07
32.54
26.76
21.51
17.28
14.30
12.45
11.35
10.51
9.50
8.06
6.18
3.99
1.59
-1.02
-4.04
-7.85
-12.81
-19.06
-26.36
-34.01
-40.79
-45.28
-46.07
-42.37
-34.16
-22.39
-8.63
5.28
17.78
27.83
34.97
39.15
40.45
39.04
35.21
29.53
22.92
16.51
11.39
8.16
6.81
6.71
7.01
6.96
6.22
4.88
3.18
1.32
-0.80
-3.58
-7.45
-12.82
-19.76
-27.99
-36.78
-45.02
-51.27
-54.13
-52.46
-45.87
-34.84
-20.73
-5.40
9.30
21.86
31.47
37.87
41.22
41.88
40.23
36.66
31.66
25.92
20.28
15.59
12.48
11.05
10.87
11.14
11.05
10.10
8.23
5.75
3.04
0.31
-2.48
-5.56
-9.15
-13.39
-18.32
-23.99
-30.44
-37.47
-44.48
-50.32
-53.48
-52.53
-46.67
-36.10
-22.00
-6.23
9.20
22.67
33.22
40.57
44.90
46.61
46.13
43.87
40.28
35.92
31.51
27.74
25.03
23.42
22.55
21.83
20.81
19.36
17.64
15.89
14.18
12.25
9.67
6.07
1.40
-4.01
-9.58
-14.74
-19.18
-22.94
-26.45
-30.34
-35.31
-41.79
-49.70
-58.21
-65.72
-70.18
-69.71
-63.26
-51.08
-34.67
-16.35
1.45
16.78
28.62
36.74
41.51
43.51
43.31
41.41
38.26
34.40
30.38
26.78
24.12
22.68
22.49
23.32
24.72
26.13
27.05
27.21
26.54
25.15
23.25
20.97
18.32
15.23
11.55
7.26
2.44
-2.68
-7.77
-12.50
-16.67
-20.29
-23.58
-26.94
-30.83
-35.61
-41.46
-48.22
-55.43
-62.23
-67.48
-69.86
-68.24
-62.01
-51.45
-37.73
-22.64
-8.02
4.86
15.58
24.45
32.04
38.67
44.12
47.84
49.27
48.34
45.48
41.62
37.76
34.61
32.45
31.18
30.48
29.99
29.39
28.47
27.07
25.10
22.55
19.38
15.65
11.40
6.79
2.03
-2.57
-6.77
-10.44
-13.58
-16.38
-19.07
-21.90
-25.08
-28.77
-33.06
-38.07
-43.78
-49.96
-56.09
-61.31
-64.45
-64.29
-59.87
-50.84
-37.70
-21.75
-4.87
10.98
24.20
33.81
39.56
41.71
40.90
37.86
33.43
28.47
23.81
20.14
17.87
16.96
17.07
17.66
18.25
18.65
18.91
19.16
19.48
19.67
19.31
17.93
15.22
11.16
6.07
0.52
-4.93
-9.86
-14.12
-17.86
-21.42
-25.22
-29.64
-34.87
-40.77
-46.77
-51.86
-54.71
-54.09
-49.24
-40.18
-27.82
-13.75
0.25
12.58
22.22
28.70
32.04
32.61
30.94
27.56
23.07
18.03
13.04
8.64
5.28
3.18
2.33
2.47
3.17
4.01
4.64
4.84
4.50
3.62
2.21
0.33
-1.90
-4.36
-7.00
-9.89
-13.21
-17.29
-22.34
-28.36
-34.90
-41.07
-45.52
-46.83
-43.99
-36.71
-25.70
-12.42
1.27
13.70
23.73
30.85
35.09
36.67
35.92
33.19
28.90
23.63
18.10
13.10
9.29
7.04
6.31
6.70
7.47
7.87
7.33
5.66
3.04
-0.13
-3.39
-6.52
-9.56
-12.86
-16.86
-21.91
-28.09
-35.14
-42.38
-48.76
-53.08
-54.19
-51.39
-44.56
-34.30
-21.75
-8.30
4.71
16.21
25.42
31.91
35.45
36.09
34.13
30.17
25.02
19.63
14.82
11.13
8.73
7.45
6.91
6.72
6.62
6.53
6.42
6.25
5.83
4.79
2.74
-0.61
-5.33
-11.33
-18.34
-25.99
-33.68
-40.57
-45.51
-47.30
-45.05
-38.52
-28.35
-15.88
-2.76
9.45
19.69
27.43
32.51
34.97
34.95
32.73
28.81
23.98
19.21
15.42
13.27
12.85
13.71
15.05
15.98
15.90
14.69
12.60
10.10
7.56
5.00
2.14
-1.51
-6.39
-12.75
-20.40
-28.79
-36.89
-43.40
-46.90
-46.22
-40.84
-31.07
-18.10
-3.67
10.32
22.30
31.33
37.02
39.46
38.90
35.76
30.62
24.29
17.76
12.09
8.08
6.05
5.71
6.29
6.89
6.87
5.98
4.43
2.68
1.04
-0.43
-2.08
-4.49
-8.26
-13.73
-20.79
-28.78
-36.56
-42.67
-45.64
-44.38
-38.59
-28.84
-16.41
-3.02
9.74
20.61
28.77
33.79
35.54
34.15
30.08
24.14
17.44
11.14
6.16
2.95
1.38
0.96
1.07
1.20
1.17
1.00
0.78
0.54
0.06
-1.10
-3.45
-7.40
-13.12
-20.35
-28.34
-35.96
-41.86
-44.74
-43.67
-38.39
-29.38
-17.77
-5.03
7.40
18.31
26.89
32.68
35.42
35.11
31.96
26.55
19.79
12.84
6.84
2.66
0.58
0.32
1.14
2.22
2.89
2.82
2.05
0.78
-0.78
-2.60
-4.91
-8.18
-12.91
-19.37
-27.30
-35.74
-43.15
-47.78
-48.13
-43.52
-34.27
-21.60
-7.29
6.87
19.42
29.40
36.33
40.07
40.68
38.45
33.85
27.69
21.02
14.93
10.32
7.60
6.61
6.68
6.96
6.80
5.85
4.20
2.11
-0.17
-2.67
-5.71
-9.77
-15.40
-22.90
-32.12
-42.30
-51.98
-59.22
-62.14
-59.44
-50.90
-37.57
-21.41
-4.70
10.64
23.36
32.94
39.37
42.73
43.15
40.83
36.29
30.36
24.16
18.77
14.87
12.56
11.38
10.52
9.22
7.10
4.25
1.11
-1.76
-4.04
-5.82
-7.51
-9.77
-13.25
-18.37
-25.23
-33.54
-42.51
-50.87
-57.07
-59.51
-57.03
-49.30
-36.98
-21.62
-5.20
10.41
23.82
34.36
41.91
46.57
48.56
48.05
45.29
40.77
35.29
29.76
25.01
21.63
19.68
18.89
18.73
18.66
18.22
17.20
15.49
13.16
10.39
7.38
4.28
1.09
-2.35
-6.36
-11.29
-17.47
-24.98
-33.54
-42.40
-50.30
-55.72
-57.16
-53.67
-45.14
-32.44
-17.20
-1.39
13.23
25.37
34.43
40.33
43.33
43.86
42.44
39.65
36.16
32.67
29.71
27.57
26.24
25.43
24.81
24.16
23.41
22.61
21.75
20.62
18.86
16.06
12.02
6.90
1.21
-4.32
-9.06
-12.73
-15.57
-18.24
-21.62
-26.49
-33.17
-41.37
-50.13
-57.93
-63.08
-64.06
-60.00
-50.86
-37.48
-21.29
-4.03
12.70
27.56
39.62
48.27
53.25
54.63
52.90
48.91
43.74
38.48
33.94
30.58
28.42
27.19
26.58
26.26
26.05
25.86
25.61
25.18
24.33
22.76
20.21
16.60
12.07
6.91
1.56
-3.65
-8.49
-12.92
-16.99
-20.83
-24.64
-28.70
-33.36
-38.88
-45.20
-51.67
-57.05
-59.68
-58.05
-51.35
-39.89
-25.13
-9.17
5.84
18.24
27.28
32.97
35.72
36.06
34.38
31.02
26.37
21.06
15.92
11.78
9.20
8.35
8.89
10.19
11.53
12.37
12.41
11.53
9.78
7.17
3.79
-0.30
-4.87
-9.59
-14.13
-18.23
-21.99
-25.77
-30.17
-35.60
-42.08
-48.87
-54.60
-57.59
-56.26
-49.79
-38.35
-23.20
-6.36
9.95
23.84
34.19
40.71
43.76
44.04
42.27
39.00
34.70
29.82
24.90
20.58
17.41
15.74
15.57
16.49
17.85
18.93
19.07
17.91
15.37
11.69
7.28
2.56
-2.15
-6.72
-11.22
-15.90
-21.10
-27.09
-34.05
-41.84
-50.00
-57.57
-63.16
-65.15
-62.19
-53.66
-40.08
-23.06
-4.92
11.99
25.92
36.04
42.36
45.39
45.81
44.16
40.86
36.32
31.09
25.83
21.18
17.60
15.28
14.09
13.66
13.55
13.35
12.76
11.58
9.74
7.24
4.19
0.78
-2.78
-6.34
-9.92
-13.78
-18.36
-24.09
-31.13
-39.14
-47.17
-53.79
-57.34
-56.39
-50.12
-38.69
-23.27
-5.90
11.03
25.45
36.03
42.53
45.43
45.56
43.63
40.04
35.08
29.20
23.22
18.23
15.16
14.32
15.27
16.97
18.22
18.21
16.74
14.15
11.02
7.87
4.86
1.85
-1.46
-5.38
-10.03
-15.47
-21.68
-28.62
-36.13
-43.66
-50.21
-54.34
-54.61
-50.01
-40.48
-27.01
-11.44
4.07
17.62
27.89
34.37
37.14
36.76
33.92
29.34
23.75
17.88
12.46
8.21
5.69
5.05
5.98
7.70
9.26
9.81
8.95
6.81
3.86
0.69
-2.36
-5.22
-8.07
-11.20
-14.95
-19.59
-25.35
-32.27
-40.09
-48.06
-54.94
-59.16
-59.28
-54.42
-44.66
-31.10
-15.56
-0.13
13.38
23.82
30.75
34.38
35.23
33.92
31.10
27.39
23.53
20.23
18.20
17.80
18.92
20.95
22.98
24.14
23.89
22.23
19.55
16.41
13.24
10.20
7.17
3.83
-0.18
-5.25
-11.70
-19.66
-28.87
-38.45
-46.90
-52.29
-52.94
-47.91
-37.46
-23.05
-6.89
8.73
22.04
32.00
38.29
40.97
40.30
36.62
30.45
22.62
14.25
6.61
0.70
-2.89
-4.27
-4.01
-2.96
-1.87
-1.21
-1.14
-1.61
-2.52
-3.86
-5.73
-8.31
-11.87
-16.66
-22.89
-30.60
-39.47
-48.59
-56.47
-61.32
-61.55
-56.28
-45.73
-31.11
-14.37
2.45
17.57
29.80
38.47
43.37
44.60
42.43
37.41
30.41
22.59
15.29
9.73
6.68
6.16
7.46
9.32
10.52
10.22
8.33
5.31
1.90
-1.34
-4.30
-7.28
-10.92
-15.86
-22.60
-31.27
-41.53
-52.37
-62.17
-68.91
-70.59
-65.98
-54.97
-38.86
-19.90
-0.69
16.57
30.50
40.59
46.89
49.68
49.29
45.99
40.35
33.24
25.84
19.41
14.87
12.58
12.18
12.83
13.59
13.78
13.17
11.92
10.31
8.45
6.11
2.78
-2.14
-9.09
-18.19
-29.19
-41.44
-53.93
-65.17
-73.29
-76.40
-73.06
-62.87
-46.71
-26.65
-5.39
14.50
31.11
43.47
51.40
55.17
55.28
52.27
46.85
39.91
32.55
25.91
20.96
18.18
17.52
18.40
19.93
21.18
21.47
20.50
18.33
15.25
11.52
7.29
2.47
-3.20
-10.00
-18.16
-27.63
-38.05
-48.54
-57.72
-63.82
-65.09
-60.29
-49.24
-33.04
-13.87
5.57
22.77
35.99
44.53
48.62
49.12
47.13
43.71
39.76
35.96
32.78
30.53
29.29
28.96
29.21
29.53
29.38
28.22
25.74
21.92
17.13
11.97
7.11
3.02
-0.31
-3.33
-6.87
-11.81
-18.82
-27.99
-38.74
-49.79
-59.26
-65.08
-65.47
-59.50
-47.47
-30.90
-12.22
5.98
21.68
33.78
42.11
47.04
49.05
48.46
45.51
40.50
34.04
27.04
20.58
15.61
12.70
11.95
12.91
14.86
16.82
17.94
17.58
15.54
12.05
7.65
3.04
-1.29
-5.15
-8.80
-12.80
-17.91
-24.68
-33.16
-42.63
-51.56
-57.82
-59.29
-54.60
-43.66
-27.77
-9.31
9.05
25.07
37.41
45.66
50.07
51.05
49.09
44.63
38.30
31.05
24.04
18.38
14.77
13.30
13.41
14.16
14.58
14.08
12.58
10.45
8.19
6.17
4.33
2.22
-0.81
-5.36
-11.76
-19.89
-29.11
-38.36
-46.21
-51.08
-51.58
-46.87
-37.06
-23.17
-7.04
9.22
23.70
35.06
42.65
46.31
46.29
43.14
37.67
31.01
24.49
19.37
16.52
16.11
17.47
19.40
20.46
19.59
16.37
11.12
4.74
-1.66
-7.19
-11.49
-14.80
-17.92
-21.87
-27.56
-35.31
-44.56
-53.81
-60.94
-63.76
-60.79
-51.73
-37.67
-20.68
-3.16
12.82
25.98
35.82
42.39
45.91
46.50
44.30
39.60
33.03
25.63
18.61
13.03
9.43
7.70
7.14
6.83
6.02
4.35
1.98
-0.65
-3.14
-5.35
-7.48
-10.03
-13.62
-18.69
-25.42
-33.57
-42.50
-51.13
-58.06
-61.82
-61.13
-55.40
-44.90
-30.77
-14.78
1.15
15.44
27.08
35.72
41.36
44.11
44.11
41.48
36.63
30.32
23.67
17.87
13.81
11.76
11.29
11.47
11.25
9.92
7.33
3.87
0.27
-2.84
-5.19
-6.98
-8.84
-11.51
-15.65
-21.53
-28.98
-37.32
-45.38
-51.63
-54.43
-52.44
-45.06
-32.79
-17.16
-0.33
15.56
28.96
39.14
46.03
49.87
50.86
49.12
44.87
38.69
31.61
24.89
19.59
16.25
14.73
14.32
14.15
13.50
12.09
9.98
7.49
4.86
2.22
-0.49
-3.44
-6.87
-11.02
-16.20
-22.66
-30.50
-39.39
-48.42
-56.09
-60.59
-60.30
-54.37
-43.07
-27.80
-10.68
6.03
20.52
31.73
39.37
43.66
45.03
43.88
40.62
35.67
29.59
23.15
17.17
12.44
9.43
8.20
8.33
9.11
9.73
9.53
8.21
5.82
2.67
-0.93
-4.79
-8.93
-13.52
-18.75
-24.79
-31.70
-39.52
-48.09
-56.88
-64.94
-70.75
-72.63
-69.17
-59.84
-45.29
-27.28
-8.23
9.51
24.24
35.13
42.17
45.80
46.63
45.26
42.26
38.27
33.94
29.87
26.46
23.90
22.08
20.76
19.75
18.95
18.38
18.01
17.70
17.11
15.85
13.52
10.01
5.50
0.41
-4.74
-9.64
-14.35
-19.36
-25.45
-33.41
-43.68
-55.99
-69.25
-81.56
-90.50
-93.76
-89.85
-78.55
-61.09
-39.87
-17.71
2.78
19.80
32.47
40.80
45.24
46.53
45.45
42.88
39.65
36.48
33.84
31.85
30.32
28.90
27.30
25.43
23.49
21.75
20.51
19.78
19.34
18.66
17.17
14.35
10.00
4.33
-2.15
-8.74
-14.77
-19.95
-24.41
-28.73
-33.73
-40.15
-48.21
-57.37
-66.27
-72.96
-75.43
-72.23
-62.96
-48.37
-30.24
-10.81
7.76
23.86
36.49
45.28
50.27
51.80
50.43
46.95
42.30
37.41
33.05
29.69
27.45
26.17
25.49
25.05
24.61
24.04
23.35
22.55
21.58
20.16
17.94
14.61
10.08
4.60
-1.27
-6.92
-11.91
-16.18
-20.14
-24.45
-29.85
-36.82
-45.32
-54.60
-63.22
-69.34
-71.07
-67.14
-57.24
-42.32
-24.33
-5.67
11.40
25.32
35.39
41.65
44.53
44.63
42.51
38.73
33.88
28.65
23.72
19.65
16.83
15.30
14.90
15.22
15.82
16.27
16.22
15.46
13.84
11.34
7.96
3.75
-1.14
-6.49
-12.00
-17.39
-22.58
-27.80
-33.52
-40.16
-47.70
-55.35
-61.52
-64.26
-61.85
-53.57
-40.03
-23.02
-4.97
11.80
25.60
35.60
41.74
44.34
43.91
40.97
36.15
30.19
23.98
18.44
14.28
11.90
11.29
12.03
13.46
14.80
15.39
14.79
12.88
9.83
5.99
1.71
-2.76
-7.30
-11.97
-16.96
-22.49
-28.85
-36.22
-44.54
-53.27
-61.25
-66.82
-68.20
-64.04
-53.91
-38.62
-20.04
-0.59
17.31
31.87
42.18
48.20
50.37
49.42
46.01
40.71
34.14
27.06
20.40
15.12
11.86
10.71
11.10
12.06
12.53
11.85
9.85
6.87
3.43
-0.07
-3.52
-7.09
-11.10
-15.83
-21.44
-28.02
-35.54
-43.81
-52.27
-59.84
-64.93
-65.77
-61.02
-50.26
-34.38
-15.36
4.26
22.06
36.32
46.26
51.90
53.73
52.38
48.50
42.77
35.98
29.08
23.07
18.72
16.34
15.72
16.11
16.56
16.19
14.58
11.80
8.30
4.66
1.31
-1.67
-4.58
-7.87
-12.02
-17.41
-24.19
-32.20
-40.87
-49.13
-55.37
-57.84
-55.08
-46.48
-32.65
-15.36
2.95
19.86
33.56
43.15
48.52
50.06
48.29
43.73
36.97
28.86
20.59
13.54
8.85
7.06
7.86
10.15
12.54
13.85
13.52
11.69
8.95
5.94
3.00
0.06
-3.23
-7.35
-12.67
-19.33
-27.21
-35.80
-44.18
-50.99
-54.76
-54.12
-48.37
-37.71
-23.24
-6.72
9.86
24.75
36.63
44.74
48.76
48.81
45.31
39.14
31.47
23.64
16.87
12.00
9.29
8.44
8.67
9.06
8.85
7.66
5.52
2.82
-0.05
-2.83
-5.56
-8.60
-12.49
-17.78
-24.80
-33.43
-42.93
-51.97
-58.76
-61.53
-58.96
-50.70
-37.53
-21.14
-3.64
12.91
26.92
37.42
43.98
46.52
45.27
40.70
33.67
25.39
17.31
10.79
6.73
5.29
5.88
7.40
8.71
9.05
8.28
6.72
4.91
3.17
1.45
-0.68
-3.85
-8.66
-15.46
-24.13
-34.01
-43.82
-51.86
-56.32
-55.85
-49.98
-39.33
-25.48
-10.46
3.79
15.80
24.68
30.03
31.66
29.67
24.41
16.65
7.59
-1.43
-9.20
-15.06
-19.05
-21.77
-24.12
-26.87
-30.41
-34.78
-39.81
-45.40
-51.64
-58.81
-67.29
-77.45
-89.55
-103.49
-118.75
-134.08
-147.62
-156.99
-159.93
-154.90
-141.73
-121.97
-98.65
-75.67
-57.00
-45.93
-44.62
-53.87
-73.02
-99.81
-130.42
-159.89
-182.89
-194.89
-193.41
-178.74
-153.72
-122.70
-89.89
-58.03
-27.87
1.44
31.19
62.11
93.67
124.21
151.49
173.47
188.98
198.01
201.60
201.52
199.73
197.90
197.10
197.63
199.05
200.50
200.86
199.10
194.52
186.68
175.61
161.80
146.16
129.91
114.42
100.79
89.70
81.19
74.74
69.45
64.35
58.73
52.29
45.17
37.70
30.25
22.93
15.53
7.63
-1.18
-10.87
-20.81
-29.62
-35.53
-36.89
-32.79
-23.41
-10.04
5.30
20.48
33.73
43.88
50.32
52.84
51.47
46.54
38.85
29.58
20.19
12.01
5.84
1.87
-0.31
-1.40
-2.12
-2.98
-4.25
-5.98
-8.10
-10.49
-13.21
-16.49
-20.74
-26.30
-33.07
-40.25
-46.35
-49.63
-48.64
-42.82
-32.77
-19.97
-6.38
6.18
16.37
23.49
27.30
27.91
25.69
21.27
15.56
9.72
4.86
1.73
0.51
0.82
1.85
2.78
3.08
2.62
1.53
0.00
-1.94
-4.58
-8.40
-13.89
-21.23
-30.08
-39.36
-47.43
-52.31
-52.30
-46.53
-35.39
-20.49
-4.22
10.89
22.94
30.95
34.93
35.51
33.53
29.75
24.77
19.12
13.26
7.68
2.76
-1.36
-4.69
-7.34
-9.39
-10.91
-11.98
-12.87
-14.06
-16.25
-20.13
-26.14
-34.16
-43.35
-52.19
-58.73
-61.07
-57.96
-49.28
-36.09
-20.40
-4.56
9.47
20.54
28.43
33.49
36.23
36.97
35.83
32.88
28.37
22.81
16.97
11.61
7.31
4.32
2.64
2.03
2.10
2.37
2.28
1.27
-1.15
-5.32
-11.29
-18.63
-26.42
-33.24
-37.35
-37.19
-31.91
-21.69
-7.88
7.46
22.17
34.51
43.56
49.15
51.56
51.28
48.80
44.60
39.26
33.46
27.89
23.10
19.29
16.37
14.03
11.92
9.86
7.86
6.02
4.35
2.63
0.35
-3.18
-8.58
-16.16
-25.57
-35.77
-45.07
-51.48
-53.24
-49.37
-40.02
-26.49
-10.81
4.82
18.68
29.83
38.05
43.56
46.63
47.37
45.81
42.10
36.72
30.47
24.35
19.24
15.64
13.51
12.40
11.65
10.61
8.83
6.20
2.86
-0.83
-4.56
-8.11
-11.51
-14.98
-18.85
-23.45
-29.03
-35.62
-42.92
-50.22
-56.33
-59.75
-59.09
-53.49
-43.00
-28.70
-12.46
3.67
17.98
29.50
37.98
43.64
46.80
47.72
46.54
43.48
39.02
33.98
29.25
25.57
23.28
22.23
21.96
21.96
21.92
21.76
21.55
21.24
20.56
19.05
16.24
11.90
6.22
-0.18
-6.52
-12.08
-16.50
-19.94
-22.94
-26.26
-30.54
-36.14
-43.06
-50.86
-58.78
-65.69
-70.26
-71.12
-67.26
-58.44
-45.36
-29.63
-13.34
1.63
14.01
23.39
30.02
34.41
37.00
37.99
37.45
35.54
32.60
29.21
26.01
23.48
21.89
21.20
21.22
21.67
22.26
22.69
22.67
21.93
20.31
17.82
14.62
11.06
7.47
3.99
0.60
-2.84
-6.45
-10.19
-13.81
-17.03
-19.68
-21.84
-23.88
-26.29
-29.51
-33.80
-39.14
-45.23
-51.42
-56.75
-60.05
-60.14
-56.24
-48.26
-36.96
-23.76
-10.35
1.76
11.66
19.03
24.05
27.11
28.57
28.71
27.71
25.83
23.43
21.00
19.02
17.83
17.49
17.81
18.39
18.84
18.88
18.43
17.53
16.25
14.59
12.44
9.67
6.16
2.00
-2.54
-7.07
-11.12
-14.39
-16.79
-18.59
-20.28
-22.52
-25.84
-30.48
-36.20
-42.22
-47.38
-50.34
-49.95
-45.60
-37.42
-26.36
-13.91
-1.73
8.76
16.72
21.91
24.50
24.89
23.44
20.53
16.57
12.12
7.90
4.53
2.44
1.76
2.26
3.53
5.08
6.42
7.16
7.03
5.91
3.92
1.30
-1.65
-4.71
-7.75
-10.86
-14.22
-18.02
-22.42
-27.42
-32.69
-37.59
-41.13
-42.16
-39.78
-33.66
-24.28
-12.86
-0.94
9.97
18.82
25.16
28.93
30.33
29.70
27.33
23.57
18.91
13.99
9.50
6.05
4.00
3.30
3.55
4.04
4.10
3.21
1.23
-1.68
-5.12
-8.69
-12.09
-15.22
-18.16
-21.13
-24.44
-28.49
-33.56
-39.71
-46.56
-53.19
-58.30
-60.52
-58.75
-52.64
-42.66
-30.02
-16.35
-3.28
7.96
16.67
22.73
26.41
28.04
27.95
26.37
23.55
19.85
15.87
12.29
9.72
8.42
8.20
8.51
8.67
8.17
6.81
4.75
2.29
-0.34
-3.09
-6.20
-9.96
-14.65
-20.39
-27.08
-34.43
-41.92
-48.71
-53.72
-55.80
-53.98
-47.91
-37.93
-25.18
-11.22
2.38
14.41
24.14
31.32
35.95
38.17
38.12
36.05
32.40
27.83
23.16
19.17
16.41
14.98
14.53
14.43
14.07
13.06
11.33
9.06
6.48
3.71
0.80
-2.39
-5.99
-10.15
-15.04
-20.87
-27.80
-35.67
-43.90
-51.39
-56.70
-58.39
-55.45
-47.72
-35.90
-21.41
-5.99
8.77
21.70
32.16
39.90
44.85
47.00
46.43
43.43
38.58
32.79
27.10
22.40
19.24
17.76
17.71
18.61
19.88
20.88
21.01
19.83
17.14
13.10
8.22
3.14
-1.56
-5.66
-9.37
-13.16
-17.73
-23.60
-30.98
-39.54
-48.40
-56.08
-60.94
-61.44
-56.68
-46.73
-32.65
-16.29
0.25
15.01
26.67
34.64
38.95
40.16
39.04
36.39
32.81
28.78
24.68
20.92
17.87
15.83
14.84
14.65
14.68
14.37
13.29
11.35
8.75
5.78
2.70
-0.42
-3.64
-7.06
-10.81
-15.01
-19.90
-25.72
-32.56
-40.10
-47.41
-52.96
-55.07
-52.35
-44.38
-31.89
-16.59
-0.71
13.75
25.41
33.69
38.56
40.31
39.29
35.86
30.63
24.49
18.50
13.69
10.72
9.64
9.91
10.74
11.32
11.11
9.92
7.85
5.16
2.15
-1.03
-4.34
-8.03
-12.53
-18.30
-25.54
-33.96
-42.58
-49.88
-54.18
-54.05
-48.87
-38.98
-25.61
-10.55
4.40
17.71
28.42
36.00
40.25
41.21
39.12
34.53
28.35
21.70
15.77
11.38
8.82
7.81
7.65
7.58
7.09
6.00
4.46
2.70
0.88
-1.06
-3.32
-6.27
-10.25
-15.60
-22.43
-30.53
-39.14
-46.96
-52.30
-53.55
-49.68
-40.61
-27.31
-11.55
4.61
19.33
31.35
39.97
45.00
46.49
44.75
40.34
34.11
27.13
20.57
15.30
11.81
9.97
9.26
8.95
8.41
7.31
5.60
3.43
1.01
-1.53
-4.32
-7.66
-12.06
-18.02
-25.86
-35.39
-45.72
-55.27
-62.04
-64.15
-60.43
-50.76
-36.27
-18.88
-0.85
15.87
29.91
40.51
47.45
50.73
50.59
47.43
42.00
35.26
28.29
22.08
17.33
14.29
12.73
12.07
11.55
10.46
8.33
5.01
0.64
-4.40
-9.65
-14.69
-19.19
-22.95
-26.02
-28.65
-31.27
-34.19
-37.40
-40.27
-41.54
-39.72
-33.66
-23.11
-8.95
6.96
22.46
35.74
45.78
52.43
56.08
57.26
56.28
53.31
48.49
42.28
35.46
29.03
23.92
20.62
19.05
18.67
18.67
18.27
16.96
14.62
11.40
7.62
3.57
-0.59
-4.92
-9.66
-15.14
-21.68
-29.47
-38.51
-48.37
-58.20
-66.60
-71.85
-72.29
-66.82
-55.39
-39.12
-20.06
-0.65
16.99
31.46
42.21
49.30
53.09
53.99
52.35
48.60
43.37
37.46
31.80
27.19
24.12
22.66
22.47
22.97
23.52
23.59
22.85
21.22
18.80
15.69
11.96
7.63
2.72
-2.71
-8.56
-14.78
-21.46
-28.83
-37.05
-45.92
-54.61
-61.55
-64.81
-62.71
-54.46
-40.60
-22.95
-4.09
13.46
27.84
38.20
44.61
47.67
48.11
46.51
43.36
39.09
34.27
29.55
25.60
22.95
21.83
22.12
23.36
24.90
26.02
26.14
24.87
22.12
18.04
12.91
7.09
0.98
-5.08
-10.82
-16.21
-21.41
-26.82
-32.88
-39.75
-47.03
-53.60
-57.83
-58.05
-53.14
-42.93
-28.40
-11.33
6.06
21.77
34.31
42.92
47.49
48.34
46.07
41.43
35.23
28.36
21.73
16.16
12.24
10.18
9.72
10.26
11.02
11.34
10.83
9.45
7.39
4.84
1.90
-1.46
-5.37
-9.97
-15.33
-21.52
-28.58
-36.42
-44.69
-52.57
-58.70
-61.42
-59.30
-51.64
-38.87
-22.54
-4.89
11.79
25.73
35.92
42.12
44.55
43.67
40.06
34.44
27.73
20.98
15.24
11.22
9.17
8.88
9.77
11.13
12.30
12.76
12.22
10.63
8.20
5.36
2.59
0.32
-1.25
-2.15
-2.59
-2.89
-3.29
-3.97
-5.02
-6.49
-8.48
-11.07
-14.40
-18.59
-23.83
-30.28
-37.89
-46.26
-54.40
-60.74
-63.45
-60.99
-52.68
-39.07
-21.88
-3.50
13.72
28.05
38.69
45.53
48.87
49.06
46.44
41.43
34.74
27.38
20.54
15.21
11.88
10.42
10.18
10.30
10.07
9.08
7.27
4.80
1.83
-1.51
-5.26
-9.49
-14.31
-19.91
-26.51
-34.31
-43.23
-52.72
-61.55
-68.00
-70.20
-66.78
-57.30
-42.54
-24.33
-5.03
13.07
28.30
39.80
47.44
51.56
52.69
51.37
48.16
43.67
38.59
33.68
29.55
26.54
24.71
23.80
23.44
23.25
22.89
22.06
20.47
17.88
14.13
9.28
3.58
-2.52
-8.57
-14.25
-19.54
-24.77
-30.52
-37.40
-45.76
-55.28
-64.91
-72.90
-77.19
-76.09
-68.76
-55.51
-37.83
-17.86
2.08
20.08
34.86
45.86
53.07
56.82
57.67
56.24
53.21
49.28
45.08
41.09
37.57
34.57
31.95
29.58
27.39
25.42
23.77
22.45
21.23
19.67
17.19
13.34
8.06
1.66
-5.15
-11.65
-17.37
-22.32
-26.93
-31.97
-38.15
-45.89
-55.00
-64.51
-72.74
-77.66
-77.36
-70.70
-57.76
-39.85
-19.26
1.46
20.08
35.14
46.16
53.31
57.14
58.29
57.31
54.67
50.88
46.49
42.09
38.24
35.31
33.33
32.09
31.19
30.24
29.07
27.68
26.20
24.60
22.66
19.95
16.04
10.78
4.42
-2.38
-8.84
-14.39
-18.92
-22.87
-27.05
-32.26
-38.99
-47.13
-55.89
-63.88
-69.42
-70.89
-67.17
-57.98
-43.97
-26.68
-8.16
9.51
24.63
36.17
43.87
48.01
49.18
48.06
45.32
41.60
37.49
33.52
30.12
27.51
25.69
24.51
23.70
23.03
22.31
21.39
20.14
18.40
16.03
12.97
9.29
5.19
0.99
-3.09
-6.96
-10.72
-14.70
-19.28
-24.78
-31.33
-38.62
-45.86
-51.79
-54.92
-53.86
-47.82
-36.93
-22.33
-5.95
10.02
23.67
33.75
39.82
42.11
41.22
37.88
32.82
26.77
20.43
14.62
10.04
7.17
6.11
6.51
7.73
9.01
9.73
9.57
8.50
6.73
4.47
1.93
-0.82
-3.76
-6.97
-10.53
-14.53
-19.02
-24.13
-29.89
-36.14
-42.43
-47.83
-51.09
-50.85
-46.17
-36.92
-23.98
-9.01
5.96
19.14
29.37
36.22
39.76
40.33
38.34
34.19
28.49
22.05
15.89
10.97
7.97
7.06
7.82
9.45
11.01
11.72
11.17
9.36
6.57
3.22
-0.37
-4.04
-7.76
-11.64
-15.79
-20.33
-25.40
-31.06
-37.27
-43.70
-49.64
-53.99
-55.48
-52.98
-45.97
-34.78
-20.57
-5.10
9.70
22.22
31.46
37.07
39.28
38.67
35.98
31.93
27.18
22.28
17.70
13.83
10.97
9.23
8.52
8.53
8.75
8.68
7.89
6.20
3.70
0.65
-2.67
-6.02
-9.37
-12.76
-16.42
-20.60
-25.57
-31.48
-38.23
-45.31
-51.67
-55.88
-56.47
-52.37
-43.43
-30.51
-15.31
0.09
13.85
24.70
32.09
36.08
37.06
35.60
32.26
27.68
22.46
17.24
12.56
8.86
6.32
4.91
4.37
4.27
4.17
3.67
2.54
0.77
-1.53
-4.11
-6.78
-9.44
-12.15
-15.09
-18.52
-22.73
-27.93
-34.14
-41.02
-47.74
-53.00
-55.24
-53.13
-46.01
-34.31
-19.43
-3.52
11.28
23.41
32.08
37.27
39.38
38.95
36.44
32.33
27.16
21.61
16.44
12.27
9.52
8.22
8.07
8.54
9.05
9.06
8.26
6.58
4.13
1.15
-2.11
-5.49
-8.94
-12.44
-16.07
-19.94
-24.24
-29.26
-35.11
-41.57
-47.82
-52.50
-53.91
-50.72
-42.40
-29.57
-13.92
2.34
17.08
28.81
36.89
41.29
42.42
40.77
36.88
31.37
25.06
18.88
13.67
10.02
8.03
7.36
7.40
7.57
7.41
6.69
5.42
3.66
1.53
-0.87
-3.51
-6.41
-9.67
-13.46
-17.96
-23.38
-29.77
-36.92
-44.19
-50.49
-54.48
-54.78
-50.56
-41.75
-29.27
-14.67
0.16
13.56
24.41
32.15
36.66
38.09
36.71
32.88
27.16
20.39
13.60
7.84
3.94
2.18
2.24
3.35
4.57
5.17
4.79
3.49
1.56
-0.72
-3.20
-5.97
-9.16
-12.94
-17.41
-22.66
-28.69
-35.36
-42.16
-48.08
-51.72
-51.64
-46.86
-37.29
-23.89
-8.42
7.12
20.97
32.00
39.67
43.88
44.72
42.42
37.46
30.57
22.84
15.48
9.60
5.90
4.46
4.74
5.86
6.86
7.01
6.03
4.00
1.19
-2.12
-5.73
-9.58
-13.69
-18.03
-22.72
-27.94
-34.03
-41.20
-49.27
-57.41
-64.09
-67.44
-65.80
-58.40
-45.74
-29.49
-11.97
4.51
18.27
28.44
34.99
38.25
38.74
36.91
33.20
28.22
22.70
17.52
13.43
10.92
10.00
10.29
11.11
11.80
11.82
10.89
9.05
6.42
3.27
-0.23
-3.97
-8.00
-12.46
-17.54
-23.49
-30.49
-38.56
-47.32
-55.92
-62.99
-66.85
-65.89
-59.22
-46.92
-30.27
-11.38
7.31
23.69
36.40
44.96
49.58
50.81
49.32
45.70
40.56
34.52
28.34
22.81
18.61
16.14
15.37
15.91
17.04
18.06
18.37
17.64
15.81
12.93
9.16
4.65
-0.44
-5.90
-11.61
-17.58
-23.99
-31.17
-39.32
-48.15
-56.69
-63.32
-66.08
-63.39
-54.55
-40.15
-21.90
-2.21
16.54
32.45
44.44
52.22
56.01
56.34
53.83
49.21
43.24
36.73
30.51
25.29
21.58
19.51
18.87
19.12
19.59
19.66
18.94
17.26
14.72
11.58
8.13
4.68
1.39
-1.69
-4.76
-8.23
-12.72
-18.82
-26.82
-36.43
-46.60
-55.54
-61.17
-61.62
-55.91
-44.22
-27.95
-9.29
9.30
25.73
38.63
47.41
52.08
53.04
50.88
46.23
39.89
32.78
25.91
20.22
16.39
14.67
14.76
16.03
17.60
18.74
18.94
18.06
16.18
13.56
10.41
6.92
3.18
-0.80
-5.07
-9.79
-15.28
-21.82
-29.57
-38.31
-47.19
-54.77
-59.27
-59.02
-53.08
-41.61
-25.86
-7.90
9.94
25.67
37.96
46.20
50.35
50.72
47.81
42.32
35.14
27.41
20.34
14.97
11.84
10.92
11.58
12.89
13.98
14.27
13.63
12.23
10.37
8.25
5.83
2.93
-0.68
-5.21
-10.82
-17.64
-25.68
-34.69
-44.02
-52.41
-58.23
-59.76
-55.86
-46.30
-32.02
-14.85
2.93
19.20
32.37
41.55
46.44
47.16
44.14
38.09
30.04
21.25
13.08
6.65
2.61
0.91
0.90
1.57
1.91
1.24
-0.66
-3.56
-6.93
-10.19
-12.94
-15.06
-16.69
-18.32
-20.54
-23.91
-28.78
-35.00
-41.78
-47.76
-51.16
-50.34
-44.29
-33.07
-17.88
-0.72
16.09
30.56
41.33
47.78
49.94
48.21
43.34
36.30
28.30
20.66
14.62
11.08
10.37
12.24
15.95
20.49
24.87
28.22
29.98
29.91
28.13
25.07
21.34
17.52
13.92
10.45
6.65
1.81
-4.80
-13.59
-24.39
-36.31
-47.71
-56.50
-60.59
-58.48
-49.74
-35.23
-16.91
2.70
21.15
36.57
47.85
54.72
57.38
56.37
52.44
46.44
39.37
32.20
25.75
20.61
16.96
14.66
13.37
12.67
12.17
11.50
10.38
8.54
5.81
2.17
-2.26
-7.16
-12.18
-17.05
-21.71
-26.38
-31.54
-37.79
-45.57
-54.91
-65.07
-74.60
-81.53
-83.81
-79.94
-69.48
-53.22
-33.03
-11.35
9.39
27.31
41.26
50.88
56.37
58.28
57.28
54.15
49.71
44.85
40.35
36.76
34.22
32.52
31.23
29.98
28.61
27.26
26.08
25.10
24.03
22.34
19.51
15.29
9.82
3.58
-2.83
-8.91
-14.45
-19.54
-24.53
-29.96
-36.37
-44.16
-53.30
-63.05
-71.95
-77.94
-78.99
-73.73
-62.08
-45.28
-25.60
-5.59
12.61
27.70
39.25
47.32
52.14
53.88
52.77
49.26
44.21
38.80
34.25
31.41
30.46
30.98
32.15
33.13
33.39
32.76
31.38
29.50
27.29
24.75
21.74
18.04
13.48
8.03
1.91
-4.45
-10.54
-15.95
-20.61
-24.83
-29.32
-34.93
-42.24
-51.27
-61.18
-70.30
-76.47
-77.66
-72.60
-61.23
-44.83
-25.53
-5.80
12.24
27.10
38.07
44.98
48.06
47.80
44.86
40.14
34.58
29.14
24.53
21.16
19.11
18.22
18.20
18.71
19.36
19.77
19.57
18.46
16.28
13.09
9.09
4.57
-0.23
-5.12
-10.05
-15.05
-20.22
-25.77
-31.95
-38.92
-46.52
-54.03
-60.12
-63.10
-61.46
-54.35
-42.08
-26.02
-8.26
9.01
24.00
35.61
43.45
47.57
48.31
46.12
41.54
35.25
28.13
21.17
15.35
11.38
9.51
9.42
10.40
11.49
11.91
11.20
9.33
6.60
3.35
-0.17
-3.86
-7.72
-11.79
-16.14
-20.95
-26.47
-32.98
-40.50
-48.51
-55.76
-60.49
-60.87
-55.69
-44.83
-29.41
-11.53
6.38
22.22
34.59
42.93
47.35
48.32
46.40
42.20
36.39
29.77
23.21
17.55
13.42
11.05
10.23
10.38
10.76
10.78
10.09
8.66
6.64
4.19
1.41
-1.79
-5.53
-9.95
-15.15
-21.23
-28.34
-36.49
-45.43
-54.44
-62.23
-67.14
-67.57
-62.47
-51.78
-36.54
-18.67
-0.49
15.89
28.96
38.06
43.21
44.95
43.93
40.85
36.35
31.10
25.79
21.12
17.65
15.68
15.13
15.57
16.35
16.74
16.12
14.22
11.12
7.20
2.98
-1.14
-5.04
-8.89
-13.17
-18.40
-25.00
-33.11
-42.36
-51.84
-60.10
-65.34
-65.85
-60.55
-49.44
-33.70
-15.49
2.72
18.86
31.59
40.46
45.68
47.74
47.15
44.44
40.11
34.82
29.35
24.45
20.71
18.38
17.29
16.96
16.77
16.07
14.44
11.79
8.27
4.28
0.23
-3.60
-7.14
-10.56
-14.17
-18.34
-23.46
-29.87
-37.67
-46.58
-55.71
-63.54
-68.14
-67.69
-61.13
-48.57
-31.46
-12.17
6.73
23.13
35.87
44.72
50.08
52.57
52.71
50.88
47.44
42.81
37.54
32.26
27.50
23.63
20.76
18.76
17.37
16.22
14.99
13.37
11.25
8.61
5.56
2.22
-1.38
-5.26
-9.52
-14.36
-19.97
-26.60
-34.33
-42.91
-51.48
-58.55
-62.31
-61.12
-54.22
-42.09
-26.43
-9.56
6.22
19.27
28.91
35.21
38.66
39.78
38.90
36.26
32.18
27.24
22.33
18.42
16.23
15.98
17.27
19.17
20.62
20.78
19.29
16.31
12.36
8.04
3.78
-0.27
-4.16
-8.11
-12.38
-17.31
-23.27
-30.56
-39.13
-48.30
-56.65
-62.21
-63.03
-57.84
-46.59
-30.65
-12.34
5.64
21.08
32.77
40.46
44.71
46.31
45.90
43.83
40.31
35.67
30.54
25.75
22.10
20.05
19.46
19.69
19.92
19.48
18.07
15.75
12.78
9.37
5.61
1.47
-3.07
-7.97
-13.20
-18.80
-24.94
-31.80
-39.34
-46.99
-53.53
-57.32
-56.74
-50.76
-39.38
-23.73
-5.81
12.07
27.86
40.17
48.32
52.20
52.08
48.42
41.88
33.43
24.31
15.88
9.35
5.40
4.02
4.49
5.75
6.79
6.90
5.96
4.22
2.15
0.15
-1.68
-3.55
-5.98
-9.52
-14.65
-21.44
-29.58
-38.19
-46.03
-51.64
-53.72
-51.40
-44.49
-33.52
-19.71
-4.59
10.17
23.07
32.92
38.94
40.80
38.61
33.01
25.15
16.48
8.42
2.15
-1.75
-3.39
-3.34
-2.47
-1.60
-1.23
-1.46
-2.18
-3.15
-4.25
-5.62
-7.59
-10.63
-15.18
-21.45
-29.23
-37.75
-45.72
-51.52
-53.56
-50.75
-42.89
-30.75
-15.91
-0.38
13.98
25.76
34.14
38.82
39.92
37.81
33.11
26.64
19.37
12.31
6.39
2.13
-0.33
-1.28
-1.33
-1.12
-1.16
-1.72
-2.79
-4.25
-5.97
-8.00
-10.61
-14.26
-19.42
-26.39
-34.97
-44.28
-52.83
-58.74
-60.27
-56.35
-47.00
-33.33
-17.22
-0.80
14.13
26.37
35.39
41.08
43.55
42.93
39.58
34.11
27.50
20.99
15.71
12.34
10.85
10.54
10.39
9.50
7.43
4.35
0.78
-2.73
-5.92
-8.95
-12.26
-16.42
-21.91
-28.93
-37.33
-46.55
-55.52
-62.78
-66.73
-65.96
-59.73
-48.29
-32.88
-15.39
2.10
17.94
31.07
41.01
47.67
51.04
51.17
48.29
42.96
36.14
29.03
22.77
18.03
14.94
13.11
11.91
10.77
9.31
7.39
5.04
2.35
-0.65
-3.92
-7.57
-11.73
-16.64
-22.67
-30.14
-39.13
-49.11
-58.92
-66.71
-70.47
-68.52
-60.20
-46.13
-28.10
-8.51
10.29
26.60
39.56
48.98
55.04
57.94
57.82
54.90
49.72
43.21
36.55
30.89
26.99
25.01
24.54
24.82
25.06
24.64
23.29
20.96
17.81
14.02
9.73
5.04
-0.03
-5.49
-11.46
-18.16
-25.77
-34.34
-43.48
-52.19
-58.91
-61.80
-59.33
-50.81
-36.80
-18.98
0.29
18.59
34.01
45.42
52.46
55.40
54.82
51.50
46.28
40.10
33.79
28.17
23.82
20.99
19.62
19.34
19.58
19.76
19.46
18.48
16.81
14.53
11.71
8.33
4.36
-0.20
-5.25
-10.59
-16.13
-21.89
-27.98
-34.33
-40.51
-45.51
-47.86
-46.14
-39.43
-27.86
-12.72
3.88
19.61
32.56
41.69
46.84
48.49
47.38
44.23
39.70
34.43
29.07
24.40
21.11
19.62
19.87
21.39
23.35
24.88
25.35
24.48
22.34
19.26
15.60
11.58
7.30
2.68
-2.43
-8.16
-14.66
-21.94
-29.81
-37.68
-44.47
-48.77
-49.14
-44.67
-35.35
-22.23
-7.11
7.96
21.25
31.64
38.63
42.16
42.43
39.80
34.78
28.19
21.12
14.72
9.96
7.39
6.95
8.06
9.80
11.23
11.69
11.01
9.44
7.47
5.55
3.91
2.38
0.52
-2.24
-6.38
-12.09
-19.13
-26.84
-34.07
-39.50
-41.81
-40.08
-34.12
-24.61
-12.95
-0.86
9.99
18.41
23.74
25.89
25.02
21.49
15.77
8.57
0.78
-6.51
-12.31
-15.92
-17.13
-16.33
-14.32
-11.98
-10.04
-8.85
-8.38
-8.39
-8.61
-9.00
-9.79
-11.42
-14.36
-18.86
-24.77
-31.58
-38.35
-43.87
-46.80
-45.98
-40.76
-31.22
-18.38
-3.87
10.35
22.56
31.63
37.04
38.86
37.45
33.34
27.18
19.85
12.42
6.02
1.51
-0.75
-1.12
-0.43
0.32
0.45
-0.29
-1.66
-3.22
-4.69
-6.12
-7.94
-10.69
-14.90
-20.72
-27.91
-35.70
-42.84
-47.89
-49.49
-46.77
-39.66
-28.91
-15.98
-2.49
10.04
20.52
28.31
33.09
34.71
33.34
29.40
23.67
17.23
11.25
6.64
3.81
2.63
2.47
2.62
2.45
1.69
0.41
-1.18
-2.93
-4.87
-7.23
-10.36
-14.55
-19.99
-26.72
-34.45
-42.58
-49.99
-55.20
-56.65
-53.23
-44.70
-31.91
-16.62
-0.91
13.31
24.82
33.13
38.26
40.41
39.82
36.81
31.83
25.66
19.23
13.53
9.21
6.47
5.09
4.47
3.99
3.20
1.90
0.11
-2.04
-4.36
-6.82
-9.55
-12.87
-17.23
-23.06
-30.51
-39.29
-48.45
-56.45
-61.50
-62.01
-57.12
-47.00
-32.83
-16.44
0.17
15.29
27.84
37.21
43.27
46.05
45.79
42.85
37.83
31.55
25.00
19.15
14.69
11.96
10.76
10.51
10.49
10.01
8.72
6.52
3.58
0.15
-3.53
-7.29
-11.07
-14.91
-19.04
-23.84
-29.80
-37.23
-45.92
-54.91
-62.49
-66.66
-65.71
-58.88
-46.68
-30.75
-13.34
3.39
17.90
29.45
37.94
43.62
46.68
47.27
45.57
41.98
37.24
32.33
28.17
25.38
24.04
23.78
24.00
24.12
23.72
22.65
20.84
18.32
15.10
11.25
6.91
2.26
-2.54
-7.39
-12.46
-18.04
-24.59
-32.44
-41.51
-51.11
-59.84
-65.83
-67.24
-62.85
-52.52
-37.34
-19.34
-0.89
15.92
29.66
39.72
46.17
49.38
49.88
48.19
44.88
40.58
35.99
31.78
28.43
26.16
24.92
24.43
24.34
24.36
24.27
23.89
23.05
21.44
18.79
14.95
10.03
4.45
-1.22
-6.50
-11.21
-15.58
-20.12
-25.44
-31.97
-39.72
-48.26
-56.57
-63.20
-66.49
-64.99
-57.98
-45.78
-29.81
-12.24
4.65
19.09
30.14
37.67
42.01
43.66
43.03
40.52
36.52
31.66
26.70
22.40
19.34
17.77
17.50
18.10
18.97
19.54
19.46
18.56
16.89
14.56
11.65
8.21
4.18
-0.44
-5.58
-11.15
-17.12
-23.59
-30.73
-38.56
-46.68
-54.11
-59.37
-60.88
-57.48
-48.94
-36.09
-20.57
-4.44
10.45
22.77
31.89
37.65
40.29
40.19
37.85
33.82
28.75
23.42
18.64
15.11
13.17
12.77
13.42
14.31
14.65
13.92
12.01
9.20
5.99
2.74
-0.44
-3.76
-7.61
-12.39
-18.36
-25.52
-33.56
-41.81
-49.28
-54.72
-56.76
-54.32
-46.94
-35.03
-19.95
-3.56
12.15
25.63
35.97
42.84
46.31
46.58
44.02
39.15
32.77
25.99
19.87
15.31
12.57
11.34
10.88
10.35
9.13
7.03
4.26
1.14
-1.95
-4.95
-8.05
-11.63
-16.14
-22.02
-29.43
-38.19
-47.61
-56.43
-63.03
-65.76
-63.44
-55.74
-43.37
-27.87
-11.12
5.08
19.40
31.05
39.67
45.11
47.35
46.49
42.88
37.26
30.70
24.41
19.40
16.13
14.44
13.62
12.76
11.19
8.71
5.53
2.12
-1.12
-4.04
-6.73
-9.39
-12.32
-15.91
-20.58
-26.75
-34.50
-43.27
-51.68
-57.75
-59.47
-55.58
-46.01
-32.07
-15.88
0.29
14.77
26.59
35.58
41.81
45.41
46.45
45.07
41.69
37.19
32.72
29.31
27.60
27.46
28.21
28.81
28.35
26.34
22.83
18.30
13.29
8.27
3.38
-1.51
-6.69
-12.45
-19.06
-26.69
-35.35
-44.77
-54.18
-62.36
-67.65
-68.53
-64.02
-54.13
-39.87
-23.05
-5.68
10.55
24.46
35.48
43.43
48.39
50.58
50.31
48.06
44.45
40.13
35.73
31.82
28.78
26.77
25.71
25.22
24.72
23.66
21.69
18.81
15.32
11.52
7.60
3.48
-1.14
-6.53
-12.84
-20.07
-28.17
-36.92
-46.01
-54.72
-61.85
-65.85
-65.22
-59.13
-47.77
-32.40
-15.11
1.89
16.81
28.65
37.14
42.52
45.18
45.44
43.52
39.72
34.49
28.61
22.97
18.37
15.29
13.73
13.28
13.31
13.15
12.37
10.84
8.71
6.21
3.54
0.72
-2.41
-6.19
-10.96
-16.95
-24.23
-32.58
-41.33
-49.40
-55.37
-57.77
-55.54
-48.36
-36.84
-22.32
-6.51
8.94
22.72
33.88
41.85
46.31
47.23
44.94
40.16
33.89
27.28
21.34
16.70
13.53
11.59
10.36
9.27
7.84
5.91
3.54
0.99
-1.56
-4.07
-6.73
-9.90
-13.97
-19.23
-25.83
-33.64
-42.18
-50.53
-57.33
-61.01
-60.17
-54.10
-43.06
-28.25
-11.59
4.89
19.43
30.90
38.75
42.86
43.46
41.04
36.33
30.30
24.05
18.60
14.63
12.31
11.29
10.86
10.25
8.92
6.82
4.26
1.71
-0.43
-2.20
-4.02
-6.61
-10.76
-16.92
-25.15
-34.84
-44.80
-53.33
-58.61
-59.11
-54.01
-43.58
-29.10
-12.50
4.14
19.14
31.48
40.75
46.89
49.95
50.09
47.52
42.80
36.81
30.60
25.16
21.10
18.48
16.88
15.63
14.09
11.89
8.99
5.67
2.23
-1.04
-4.14
-7.34
-11.17
-16.23
-23.00
-31.50
-41.13
-50.68
-58.39
-62.47
-61.56
-55.15
-43.73
-28.66
-11.75
5.21
20.81
34.17
44.88
52.75
57.69
59.65
58.71
55.19
49.86
43.73
38.00
33.58
30.93
29.89
29.82
29.83
29.14
27.33
24.31
20.34
15.79
10.98
6.04
0.90
-4.75
-11.25
-18.92
-27.86
-37.80
-47.98
-57.13
-63.63
-65.85
-62.67
-53.79
-39.98
-22.93
-4.81
12.31
26.91
38.19
46.01
50.56
52.11
50.98
47.57
42.53
36.75
31.21
26.77
23.88
22.46
22.05
21.99
21.69
20.84
19.34
17.24
14.63
11.54
7.99
4.03
-0.23
-4.72
-9.52
-14.89
-21.28
-29.08
-38.29
-48.22
-57.42
-63.90
-65.75
-61.64
-51.42
-36.18
-17.97
0.81
17.98
32.01
42.24
48.59
51.42
51.25
48.66
44.28
38.84
33.14
27.89
23.64
20.68
18.97
18.26
18.19
18.42
18.69
18.76
18.42
17.50
15.84
13.36
10.08
6.12
1.58
-3.49
-9.15
-15.56
-22.83
-30.81
-38.98
-46.29
-51.38
-52.84
-49.68
-41.74
-29.79
-15.41
-0.54
13.06
24.15
32.20
37.14
39.18
38.62
35.80
31.18
25.44
19.50
14.32
10.69
8.96
8.98
10.19
11.86
13.29
14.06
13.91
12.78
10.70
7.77
4.17
0.17
-3.94
-7.89
-11.66
-15.47
-19.77
-24.97
-31.20
-37.99
-44.28
-48.61
-49.54
-46.14
-38.39
-27.12
-13.98
-0.79
10.83
19.81
25.70
28.64
28.98
27.23
23.89
19.44
14.44
9.52
5.34
2.43
1.06
1.11
2.08
3.31
4.14
4.17
3.38
2.02
0.42
-1.13
-2.58
-4.13
-6.10
-8.84
-12.58
-17.39
-23.09
-29.27
-35.20
-39.87
-42.21
-41.25
-36.50
-28.15
-17.15
-4.90
7.03
17.34
25.15
30.06
32.01
31.15
27.81
22.57
16.32
10.07
4.79
1.12
-0.84
-1.46
-1.37
-1.22
-1.41
-2.03
-2.98
-4.08
-5.20
-6.37
-7.85
-9.98
-13.23
-17.92
-24.03
-31.05
-37.90
-43.14
-45.31
-43.43
-37.30
-27.59
-15.64
-3.06
8.69
18.56
25.96
30.62
32.50
31.65
28.30
22.98
16.48
9.76
3.69
-1.20
-4.79
-7.34
-9.25
-10.74
-11.92
-12.65
-12.89
-12.78
-12.73
-13.31
-15.09
-18.47
-23.46
-29.62
-36.06
-41.50
-44.56
-44.07
-39.50
-31.10
-19.88
-7.35
4.92
15.66
24.08
29.79
32.63
32.62
29.99
25.27
19.34
13.23
7.90
3.87
1.21
-0.39
-1.33
-1.90
-2.20
-2.25
-2.20
-2.40
-3.32
-5.48
-9.25
-14.77
-21.94
-30.28
-38.92
-46.56
-51.70
-52.98
-49.66
-41.87
-30.65
-17.61
-4.54
7.14
16.49
23.07
26.77
27.65
25.92
22.04
16.72
10.84
5.33
0.87
-2.28
-4.26
-5.48
-6.40
-7.24
-7.98
-8.48
-8.64
-8.64
-9.01
-10.54
-14.00
-19.82
-27.76
-36.80
-45.24
-51.09
-52.73
-49.29
-41.04
-29.16
-15.43
-1.58
11.01
21.50
29.49
34.75
37.15
36.61
33.37
28.06
21.83
15.94
11.47
8.92
8.05
8.06
8.03
7.37
5.98
4.15
2.31
0.56
-1.36
-4.05
-8.18
-14.21
-22.19
-31.71
-41.89
-51.42
-58.73
-62.27
-60.93
-54.39
-43.29
-29.07
-13.56
1.50
14.86
25.77
33.89
39.04
41.13
40.24
36.76
31.51
25.61
20.15
15.94
13.22
11.68
10.70
9.69
8.23
6.32
4.16
2.07
0.18
-1.55
-3.49
-6.19
-10.21
-16.03
-23.77
-33.06
-42.91
-51.84
-58.15
-60.28
-57.34
-49.28
-37.03
-22.10
-6.30
8.74
21.88
32.39
40.02
44.74
46.68
46.13
43.52
39.50
34.80
30.25
26.52
24.04
22.89
22.79
23.12
23.22
22.50
20.68
17.88
14.41
10.68
6.82
2.71
-2.05
-7.84
-14.92
-23.29
-32.54
-42.06
-50.87
-57.86
-61.74
-61.32
-55.81
-45.16
-30.17
-12.49
5.84
22.82
36.98
47.55
54.41
57.85
58.39
56.57
52.97
48.25
43.11
38.23
34.15
31.17
29.30
28.35
28.04
27.98
27.79
27.09
25.55
23.02
19.53
15.24
10.44
5.43
0.41
-4.58
-9.64
-15.06
-21.24
-28.52
-36.87
-45.61
-53.35
-58.23
-58.43
-52.86
-41.56
-25.88
-8.04
9.53
24.78
36.50
44.30
48.42
49.41
47.86
44.31
39.31
33.54
27.74
22.70
19.06
17.11
16.72
17.35
18.27
18.77
18.38
16.97
14.66
11.78
8.57
5.17
1.52
-2.59
-7.39
-13.12
-19.91
-27.68
-36.03
-44.09
-50.52
-53.74
-52.40
-45.83
-34.39
-19.44
-3.00
12.87
26.52
37.01
44.03
47.67
48.12
45.67
40.79
34.23
27.13
20.72
16.04
13.55
13.00
13.50
13.99
13.60
12.03
9.50
6.56
3.69
1.06
-1.45
-4.23
-7.76
-12.43
-18.45
-25.83
-34.20
-42.78
-50.31
-55.21
-55.95
-51.52
-41.85
-27.92
-11.56
5.06
19.90
31.60
39.56
43.89
45.10
43.81
40.54
35.79
30.12
24.21
18.90
14.94
12.73
12.18
12.70
13.41
13.49
12.47
10.29
7.26
3.77
0.15
-3.50
-7.27
-11.34
-15.99
-21.49
-28.10
-35.91
-44.66
-53.56
-61.25
-66.05
-66.40
-61.33
-50.90
-36.24
-19.20
-1.86
13.97
27.10
36.97
43.59
47.23
48.29
47.22
44.43
40.37
35.51
30.35
25.43
21.19
17.97
15.92
14.93
14.66
14.59
14.14
12.87
10.56
7.27
3.27
-1.07
-5.45
-9.68
-13.78
-17.93
-22.48
-27.78
-34.13
-41.45
-49.16
-56.09
-60.61
-61.11
-56.52
-46.81
-32.95
-16.73
-0.13
15.08
27.73
37.27
43.59
46.89
47.55
46.10
43.18
39.50
35.78
32.57
30.21
28.76
28.01
27.63
27.28
26.74
25.94
24.91
23.69
22.15
20.01
16.92
12.65
7.25
1.08
-5.26
-11.22
-16.43
-20.89
-24.89
-28.93
-33.50
-39.00
-45.57
-52.90
-60.15
-66.05
-69.06
-67.82
-61.66
-50.83
-36.54
-20.55
-4.67
9.64
21.62
30.96
37.65
41.71
43.20
42.28
39.44
35.51
31.49
28.27
26.34
25.67
25.80
26.12
26.11
25.55
24.44
22.95
21.27
19.43
17.31
14.66
11.27
7.04
2.04
-3.45
-9.04
-14.36
-19.18
-23.52
-27.58
-31.68
-36.17
-41.32
-47.13
-53.26
-58.93
-62.95
-64.00
-60.94
-53.25
-41.31
-26.37
-10.24
5.14
18.18
28.02
34.47
37.83
38.62
37.40
34.61
30.69
26.09
21.36
17.15
14.02
12.34
12.13
13.02
14.42
15.59
16.03
15.45
13.94
11.70
9.01
6.02
2.79
-0.64
-4.21
-7.76
-11.22
-14.71
-18.60
-23.34
-29.23
-36.06
-42.89
-48.23
-50.42
-48.28
-41.47
-30.71
-17.57
-3.94
8.49
18.55
25.76
30.06
31.63
30.78
27.84
23.29
17.76
12.12
7.22
3.70
1.84
1.37
1.72
2.14
2.05
1.20
-0.36
-2.36
-4.56
-6.87
-9.40
-12.34
-15.94
-20.30
-25.48
-31.35
-37.55
-43.41
-47.91
-49.88
-48.25
-42.49
-32.87
-20.45
-6.80
6.41
17.77
26.33
31.63
33.64
32.56
28.86
23.27
16.67
10.09
4.40
0.25
-2.16
-3.02
-2.90
-2.44
-2.26
-2.72
-3.91
-5.79
-8.15
-10.97
-14.39
-18.70
-24.21
-31.03
-38.89
-46.96
-53.92
-58.21
-58.45
-53.85
-44.53
-31.54
-16.54
-1.38
12.42
23.77
32.15
37.33
39.24
38.04
34.16
28.42
21.95
15.95
11.30
8.31
6.79
6.12
5.61
4.76
3.38
1.53
-0.57
-2.77
-5.12
-7.91
-11.63
-16.81
-23.78
-32.40
-41.95
-51.09
-58.23
-61.81
-60.74
-54.75
-44.34
-30.74
-15.52
-0.29
13.64
25.31
34.15
39.93
42.62
42.43
39.79
35.44
30.28
25.25
21.09
18.15
16.29
15.07
13.92
12.38
10.24
7.51
4.34
0.90
-2.74
-6.66
-11.07
-16.35
-22.89
-30.91
-40.18
-49.83
-58.32
-63.76
-64.49
-59.55
-49.14
-34.53
-17.67
-0.59
15.10
28.41
38.87
46.34
50.76
52.11
50.51
46.37
40.53
34.09
28.24
23.88
21.38
20.44
20.26
19.88
18.54
16.01
12.57
8.81
5.28
2.26
-0.46
-3.45
-7.43
-13.01
-20.52
-29.87
-40.46
-51.21
-60.51
-66.57
-67.75
-63.07
-52.56
-37.35
-19.35
-0.77
16.47
31.04
42.36
50.33
55.08
56.81
55.81
52.45
47.41
41.61
36.05
31.55
28.48
26.70
25.65
24.71
23.38
21.50
19.14
16.47
13.58
10.35
6.70
2.48
-2.35
-7.83
-14.07
-21.31
-29.69
-39.08
-48.68
-57.08
-62.41
-62.94
-57.61
-46.47
-30.76
-12.53
5.93
22.63
36.23
46.15
52.41
55.35
55.49
53.35
49.50
44.59
39.28
34.25
30.08
27.13
25.45
24.78
24.57
24.22
23.24
21.34
18.51
14.96
10.97
6.77
2.54
-1.70
-6.00
-10.57
-15.73
-21.83
-29.02
-37.05
-45.00
-51.41
-54.50
-52.79
-45.60
-33.39
-17.61
-0.39
16.09
30.14
40.69
47.38
50.30
49.77
46.28
40.49
33.27
25.72
18.96
13.91
10.99
10.10
10.62
11.72
12.66
12.92
12.35
11.07
9.32
7.26
4.97
2.33
-0.91
-5.09
-10.52
-17.32
-25.30
-33.78
-41.62
-47.34
-49.50
-47.04
-39.70
-28.08
-13.50
2.28
17.47
30.58
40.50
46.55
48.44
46.26
40.60
32.52
23.48
15.00
8.28
3.95
1.84
1.26
1.27
1.09
0.39
-0.79
-2.10
-3.24
-4.16
-5.08
-6.46
-8.87
-12.76
-18.38
-25.58
-33.78
-41.84
-48.31
-51.61
-50.46
-44.29
-33.50
-19.33
-3.66
11.54
24.62
34.48
40.66
43.11
42.13
38.19
32.02
24.57
17.00
10.44
5.73
3.17
2.41
2.68
3.09
2.96
2.06
0.51
-1.40
-3.45
-5.67
-8.39
-12.06
-17.14
-23.89
-32.11
-41.07
-49.44
-55.53
-57.68
-54.75
-46.54
-33.84
-18.24
-1.65
14.12
27.71
38.19
45.11
48.26
47.77
44.14
38.27
31.41
24.88
19.74
16.52
15.12
14.90
15.02
14.70
13.48
11.31
8.42
5.19
1.87
-1.53
-5.27
-9.82
-15.71
-23.24
-32.28
-42.14
-51.57
-58.93
-62.53
-61.05
-53.96
-41.71
-25.73
-8.08
9.11
24.12
36.00
44.52
49.87
52.39
52.33
49.89
45.43
39.56
33.18
27.24
22.50
19.24
17.26
15.99
14.81
13.22
11.07
8.48
5.74
3.04
0.42
-2.33
-5.53
-9.51
-14.49
-20.57
-27.81
-36.05
-44.84
-53.21
-59.71
-62.62
-60.46
-52.52
-39.27
-22.24
-3.68
14.09
29.25
40.74
48.23
51.96
52.43
50.30
46.23
40.91
35.00
29.19
24.10
20.18
17.69
16.60
16.56
17.01
17.31
16.97
15.78
13.80
11.29
8.45
5.36
1.99
-1.77
-5.97
-10.66
-15.96
-22.09
-29.33
-37.69
-46.60
-54.78
-60.44
-61.74
-57.42
-47.38
-32.73
-15.53
1.84
17.28
29.41
37.74
42.44
44.07
43.23
40.45
36.24
31.14
25.84
21.05
17.38
15.11
14.21
14.28
14.80
15.16
14.96
13.94
12.03
9.35
6.14
2.65
-0.95
-4.59
-8.40
-12.55
-17.26
-22.71
-28.99
-35.96
-43.22
-49.87
-54.59
-55.92
-52.67
-44.37
-31.62
-15.93
0.62
15.97
28.50
37.28
41.99
42.86
40.42
35.43
28.88
21.83
15.32
10.16
6.81
5.27
5.20
5.99
6.97
7.54
7.24
5.90
3.63
0.72
-2.43
-5.50
-8.37
-11.23
-14.53
-18.82
-24.48
-31.46
-39.03
-45.90
-50.42
-51.07
-46.94
-38.05
-25.42
-10.69
4.28
17.93
29.19
37.51
42.66
44.53
43.11
38.57
31.53
23.05
14.59
7.57
2.97
0.98
1.00
1.96
2.72
2.54
1.21
-0.98
-3.55
-6.09
-8.40
-10.55
-12.78
-15.52
-19.23
-24.29
-30.75
-38.08
-45.08
-50.09
-51.46
-48.12
-39.93
-27.80
-13.27
1.85
15.98
27.90
36.76
41.98
43.40
41.19
36.01
28.98
21.41
14.58
9.34
6.02
4.37
3.73
3.26
2.28
0.48
-2.03
-4.84
-7.48
-9.73
-11.71
-13.85
-16.73
-20.81
-26.36
-33.31
-41.14
-48.90
-55.13
-58.21
-56.72
-49.97
-38.43
-23.55
-7.50
7.67
20.52
30.35
37.04
40.64
41.08
38.32
32.63
24.96
16.89
10.15
6.09
5.03
6.25
8.29
9.65
9.29
7.04
3.48
-0.53
-4.17
-7.12
-9.60
-12.39
-16.43
-22.57
-31.25
-42.11
-53.97
-64.91
-72.60
-74.85
-70.32
-59.08
-42.99
-25.36
-10.14
-0.75
1.12
-3.98
-13.37
-23.22
-29.83
-30.77
-25.41
-14.79
-0.94
13.92
27.99
40.07
49.48
55.80
58.76
58.29
54.77
49.01
42.25
35.78
30.53
26.83
24.35
22.43
20.38
17.84
14.80
11.51
8.22
5.04
1.92
-1.36
-5.07
-9.52
-14.92
-21.45
-29.19
-38.04
-47.54
-56.70
-64.05
-67.88
-66.71
-59.80
-47.56
-31.49
-13.74
3.51
18.62
30.78
39.86
46.07
49.62
50.59
49.12
45.56
40.52
34.95
29.70
25.46
22.46
20.55
19.38
18.51
17.62
16.49
15.06
13.22
10.88
7.87
4.01
-0.88
-6.88
-13.99
-22.18
-31.30
-41.01
-50.70
-59.34
-65.52
-67.75
-64.89
-56.52
-43.19
-26.37
-8.11
9.48
24.73
36.63
44.91
49.75
51.63
51.03
48.47
44.43
39.58
34.64
30.37
27.37
25.85
25.61
26.06
26.49
26.24
24.95
22.59
19.36
15.62
11.65
7.61
3.44
-1.09
-6.33
-12.66
-20.35
-29.37
-39.22
-48.80
-56.45
-60.28
-58.74
-51.14
-38.06
-21.14
-2.73
14.94
30.18
42.15
50.56
55.49
57.07
55.53
51.33
45.31
38.58
32.35
27.51
24.44
22.94
22.41
22.11
21.39
19.89
17.58
14.65
11.43
8.16
4.94
1.65
-2.03
-6.51
-12.13
-19.06
-27.17
-35.94
-44.39
-51.23
-54.95
-54.25
-48.40
-37.57
-22.88
-6.20
10.36
24.97
36.37
44.07
48.10
48.84
46.76
42.47
36.61
30.06
23.76
18.58
15.09
13.29
12.72
12.63
12.29
11.26
9.52
7.29
4.91
2.61
0.38
-2.05
-5.11
-9.32
-15.09
-22.53
-31.23
-40.20
-47.86
-52.37
-52.17
-46.46
-35.56
-20.89
-4.51
11.46
25.35
36.21
43.69
47.85
48.84
46.91
42.48
36.27
29.32
22.72
17.37
13.63
11.35
10.01
9.01
7.90
6.45
4.62
2.43
-0.09
-2.97
-6.24
-9.93
-14.11
-18.91
-24.55
-31.14
-38.65
-46.53
-53.76
-58.78
-59.95
-55.96
-46.41
-32.06
-14.72
3.23
19.51
32.50
41.51
46.61
48.32
47.30
44.09
39.24
33.35
27.18
21.56
17.26
14.70
13.86
14.25
15.06
15.48
14.92
13.14
10.31
6.85
3.16
-0.44
-3.94
-7.53
-11.53
-16.29
-22.08
-29.02
-36.99
-45.55
-53.78
-60.30
-63.52
-62.08
-55.25
-43.41
-27.92
-10.83
5.72
20.08
31.31
39.20
43.96
45.96
45.51
42.98
38.81
33.66
28.35
23.66
20.13
17.96
16.94
16.67
16.60
16.29
15.43
13.87
11.61
8.78
5.50
1.92
-1.85
-5.79
-9.96
-14.50
-19.65
-25.71
-32.91
-41.25
-50.12
-58.32
-64.10
-65.63
-61.64
-51.89
-37.42
-20.20
-2.59
13.38
26.41
36.02
42.32
45.72
46.59
45.33
42.34
38.13
33.38
28.75
24.80
21.87
20.02
19.04
18.65
18.49
18.18
17.42
15.96
13.62
10.36
6.19
1.22
-4.26
-9.95
-15.54
-20.85
-25.97
-31.24
-37.15
-44.01
-51.66
-59.21
-65.14
-67.67
-65.33
-57.46
-44.50
-27.96
-9.97
7.28
22.04
33.26
40.64
44.39
44.99
42.97
38.85
33.23
26.87
20.66
15.41
11.72
9.74
9.23
9.64
10.28
10.54
9.99
8.45
5.92
2.54
-1.43
-5.71
-10.04
-14.24
-18.32
-22.52
-27.30
-33.06
-39.92
-47.38
-54.16
-58.50
-58.68
-53.66
-43.52
-29.49
-13.50
2.38
16.52
27.94
36.18
41.15
42.88
41.54
37.58
31.76
25.14
18.92
14.06
11.03
9.74
9.53
9.60
9.27
8.17
6.42
4.37
2.42
0.71
-0.94
-3.04
-6.16
-10.72
-16.81
-24.23
-32.47
-40.80
-48.26
-53.65
-55.79
-53.70
-47.02
-36.19
-22.39
-7.37
7.14
19.70
29.40
35.78
38.71
38.29
34.86
29.18
22.38
15.78
10.60
7.49
6.38
6.54
6.96
6.83
5.86
4.22
2.38
0.72
-0.66
-2.01
-3.81
-6.61
-10.83
-16.67
-23.88
-31.65
-38.64
-43.18
-43.75
-39.45
-30.42
-17.74
-3.25
11.07
23.56
33.08
39.08
41.41
40.31
36.30
30.25
23.30
16.65
11.24
7.52
5.39
4.28
3.61
2.88
1.96
0.94
-0.03
-0.93
-1.98
-3.63
-6.38
-10.59
-16.37
-23.42
-30.98
-37.83
-42.59
-43.96
-41.17
-34.15
-23.69
-11.15
1.83
13.81
23.69
30.81
34.90
35.91
34.05
29.70
23.56
16.54
9.68
3.86
-0.36
-2.93
-4.14
-4.52
-4.54
-4.57
-4.83
-5.49
-6.78
-8.99
-12.45
-17.36
-23.68
-30.99
-38.39
-44.57
-47.94
-47.14
-41.43
-31.12
-17.60
-2.91
10.72
21.60
28.78
32.16
32.19
29.61
25.18
19.61
13.62
7.86
2.94
-0.73
-2.96
-3.87
-3.82
-3.30
-2.78
-2.67
-3.23
-4.68
-7.25
-11.20
-16.69
-23.61
-31.30
-38.56
-43.74
-45.25
-42.02
-33.92
-21.90
-7.62
6.94
19.94
30.08
36.67
39.54
38.98
35.59
30.21
23.79
17.32
11.58
7.09
3.98
2.07
1.02
0.42
-0.07
-0.68
-1.58
-2.98
-5.11
-8.31
-12.87
-18.87
-25.96
-33.27
-39.38
-42.66
-41.74
-35.96
-25.65
-12.14
2.67
16.82
28.75
37.59
43.05
45.29
44.72
41.79
37.08
31.29
25.22
19.57
14.89
11.34
8.82
7.01
5.54
4.21
2.94
1.70
0.43
-1.19
-3.70
-7.73
-13.75
-21.71
-30.91
-39.92
-46.94
-50.19
-48.48
-41.54
-30.13
-15.75
-0.28
14.56
27.48
37.79
45.26
49.87
51.69
50.81
47.49
42.31
36.18
30.19
25.33
22.13
20.59
20.18
20.17
19.84
18.80
16.94
14.37
11.24
7.60
3.44
-1.34
-6.87
-13.27
-20.60
-28.76
-37.41
-45.81
-52.78
-56.91
-56.88
-51.93
-42.17
-28.62
-12.93
3.08
17.83
30.17
39.51
45.61
48.55
48.62
46.38
42.62
38.20
33.91
30.25
27.39
25.21
23.46
21.94
20.56
19.38
18.39
17.54
16.52
14.96
12.51
9.07
4.75
-0.03
-4.78
-9.15
-12.96
-16.32
-19.63
-23.39
-28.11
-34.12
-41.27
-48.85
-55.53
-59.59
-59.42
-54.06
-43.56
-29.09
-12.56
3.92
18.51
30.11
38.22
42.91
44.46
43.26
39.81
34.78
28.99
23.40
18.88
16.07
15.16
15.94
17.88
20.23
22.24
23.30
22.96
21.07
17.70
13.09
7.65
1.84
-3.87
-9.06
-13.47
-16.97
-19.73
-22.13
-24.74
-28.17
-32.81
-38.59
-44.79
-50.03
-52.66
-51.21
-45.03
-34.55
-21.17
-6.79
6.76
18.30
27.22
33.40
36.89
37.71
35.98
32.04
26.57
20.47
14.76
10.20
7.23
5.83
5.70
6.39
7.37
8.18
8.48
8.02
6.73
4.66
1.91
-1.28
-4.70
-8.12
-11.42
-14.66
-18.07
-22.04
-26.89
-32.70
-38.95
-44.65
-48.34
-48.58
-44.51
-36.14
-24.48
-11.22
1.75
12.91
21.31
26.71
29.28
29.41
27.55
24.11
19.68
14.93
10.69
7.69
6.34
6.62
7.97
9.58
10.56
10.36
8.83
6.23
3.03
-0.33
-3.65
-7.00
-10.52
-14.44
-18.90
-24.05
-29.98
-36.66
-43.77
-50.51
-55.64
-57.71
-55.58
-48.83
-38.02
-24.58
-10.32
3.04
14.35
23.03
29.06
32.57
33.69
32.46
29.08
24.03
18.20
12.72
8.64
6.51
6.21
7.05
8.07
8.51
8.03
6.68
4.76
2.50
-0.02
-2.84
-6.05
-9.75
-13.97
-18.81
-24.46
-31.02
-38.35
-45.88
-52.52
-56.89
-57.65
-53.98
-45.85
-34.11
-20.26
-6.04
6.93
17.63
25.60
30.84
33.67
34.38
33.29
30.74
27.18
23.17
19.36
16.34
14.36
13.32
12.81
12.22
11.07
9.16
6.61
3.73
0.88
-1.79
-4.38
-7.24
-10.75
-15.21
-20.79
-27.45
-34.92
-42.63
-49.63
-54.59
-56.10
-53.05
-45.15
-33.13
-18.58
-3.45
10.48
22.12
30.98
37.04
40.34
40.94
38.96
34.84
29.45
23.93
19.36
16.33
14.81
14.20
13.75
12.87
11.31
9.22
6.90
4.59
2.44
0.41
-1.62
-3.80
-6.38
-9.63
-13.87
-19.36
-25.99
-33.21
-39.89
-44.58
-45.87
-42.87
-35.53
-24.72
-11.93
1.22
13.34
23.52
31.31
36.52
39.03
38.79
35.97
31.10
25.20
19.48
15.00
12.33
11.40
11.63
12.24
12.55
12.22
11.19
9.62
7.65
5.36
2.76
-0.14
-3.36
-6.95
-11.07
-15.98
-21.93
-28.95
-36.65
-44.08
-49.85
-52.45
-50.71
-44.24
-33.60
-20.13
-5.61
8.25
20.07
29.03
34.77
37.34
37.01
34.25
29.72
24.20
18.56
13.66
10.09
8.04
7.24
7.10
6.89
6.09
4.49
2.23
-0.28
-2.69
-4.81
-6.71
-8.69
-11.14
-14.43
-18.78
-24.16
-30.19
-36.07
-40.63
-42.57
-40.84
-35.02
-25.52
-13.58
-0.85
11.06
20.93
28.15
32.56
34.29
33.55
30.71
26.28
21.03
15.89
11.68
8.91
7.57
7.20
7.09
6.62
5.44
3.60
1.38
-0.83
-2.89
-5.00
-7.68
-11.55
-17.08
-24.35
-32.82
-41.43
-48.76
-53.33
-53.94
-49.98
-41.58
-29.59
-15.47
-0.86
12.76
24.27
32.99
38.61
41.02
40.30
36.88
31.49
25.27
19.36
14.63
11.42
9.50
8.25
7.05
5.54
3.71
1.77
-0.07
-1.78
-3.56
-5.79
-8.91
-13.25
-19.07
-26.30
-34.40
-42.35
-48.70
-51.85
-50.52
-44.23
-33.47
-19.62
-4.54
9.96
22.48
32.24
38.97
42.69
43.58
41.86
37.95
32.53
26.55
21.07
16.93
14.48
13.50
13.25
12.88
11.74
9.64
6.80
3.71
0.81
-1.77
-4.23
-7.09
-10.97
-16.41
-23.68
-32.56
-42.19
-51.09
-57.44
-59.48
-56.04
-46.98
-33.31
-16.87
0.22
16.11
29.63
40.23
47.82
52.38
53.90
52.39
48.16
41.96
34.96
28.42
23.33
20.15
18.57
17.92
17.30
16.10
14.05
11.28
8.10
4.83
1.62
-1.62
-5.08
-9.00
-13.59
-18.99
-25.25
-32.36
-40.04
-47.63
-53.99
-57.60
-57.05
-51.42
-40.74
-26.09
-9.34
7.41
22.37
34.33
42.87
48.03
50.13
49.57
46.77
42.27
36.75
31.06
26.03
22.23
19.91
18.91
18.76
18.83
18.62
17.77
16.11
13.70
10.66
7.15
3.31
-0.80
-5.17
-9.88
-15.13
-21.18
-28.26
-36.37
-45.09
-53.39
-59.69
-62.23
-59.59
-51.25
-37.89
-21.23
-3.53
13.03
26.94
37.41
44.34
47.91
48.46
46.34
42.08
36.42
30.29
24.68
20.33
17.61
16.43
16.36
16.79
17.16
17.05
16.20
14.58
12.23
9.31
5.98
2.44
-1.17
-4.77
-8.44
-12.41
-17.08
-22.87
-29.97
-38.12
-46.39
-53.30
-57.08
-56.26
-50.16
-39.16
-24.65
-8.66
6.80
20.16
30.53
37.62
41.52
42.50
40.83
36.93
31.43
25.22
19.33
14.67
11.80
10.74
10.98
11.75
12.29
12.12
11.07
9.32
7.17
4.86
2.49
0.01
-2.77
-6.08
-10.17
-15.25
-21.39
-28.41
-35.73
-42.34
-46.85
-47.90
-44.56
-36.68
-25.06
-11.18
3.12
16.22
26.91
34.59
39.06
40.38
38.77
34.64
28.68
21.85
15.28
9.96
6.53
5.13
5.34
6.43
7.61
8.24
8.02
6.96
5.29
3.22
0.87
-1.88
-5.34
-9.89
-15.79
-22.96
-30.91
-38.70
-45.18
-49.15
-49.66
-46.18
-38.74
-27.96
-14.92
-1.02
12.23
23.44
31.57
36.02
36.73
34.12
29.07
22.74
16.32
10.86
7.02
4.97
4.42
4.71
5.11
5.04
4.23
2.75
0.84
-1.18
-3.25
-5.53
-8.39
-12.26
-17.50
-24.13
-31.74
-39.40
-45.78
-49.41
-49.10
-44.22
-35.02
-22.49
-8.24
5.99
18.60
28.40
34.72
37.33
36.39
32.41
26.25
18.96
11.76
5.68
1.36
-1.06
-1.98
-2.08
-2.05
-2.27
-2.82
-3.57
-4.40
-5.40
-6.91
-9.45
-13.47
-19.27
-26.81
-35.53
-44.40
-51.85
-56.19
-55.95
-50.45
-40.03
-26.05
-10.40
4.97
18.51
29.25
36.71
40.68
41.17
38.50
33.37
26.84
20.20
14.54
10.50
8.04
6.66
5.58
4.18
2.15
-0.44
-3.19
-5.74
-7.96
-10.08
-12.69
-16.54
-22.16
-29.66
-38.47
-47.37
-54.76
-58.97
-58.68
-53.27
-43.03
-29.10
-13.22
2.70
17.01
28.63
37.02
42.14
44.13
43.30
40.13
35.31
29.79
24.63
20.69
18.37
17.54
17.55
17.57
16.96
15.38
12.92
9.96
6.86
3.72
0.36
-3.72
-9.14
-16.36
-25.45
-35.95
-46.73
-56.20
-62.58
-64.29
-60.36
-50.77
-36.46
-19.14
-0.83
16.59
31.70
43.63
51.95
56.56
57.58
55.39
50.72
44.55
38.10
32.45
28.35
26.04
25.15
24.94
24.57
23.41
21.22
18.24
14.93
11.68
8.65
5.60
2.04
-2.59
-8.72
-16.52
-25.74
-35.71
-45.30
-52.98
-57.06
-56.16
-49.56
-37.60
-21.73
-4.06
13.15
28.02
39.45
47.14
51.30
52.43
51.01
47.45
42.30
36.28
30.35
25.51
22.50
21.52
22.15
23.48
24.46
24.32
22.78
20.03
16.53
12.71
8.79
4.80
0.56
-4.13
-9.52
-15.88
-23.43
-32.13
-41.41
-50.06
-56.33
-58.38
-54.91
-45.67
-31.62
-14.63
3.03
19.36
32.95
43.12
49.68
52.75
52.63
49.72
44.64
38.30
31.72
25.89
21.56
18.99
17.99
17.98
18.21
18.01
16.95
14.95
12.25
9.28
6.41
3.81
1.31
-1.53
-5.29
-10.46
-17.29
-25.59
-34.63
-43.23
-49.79
-52.72
-50.79
-43.61
-31.76
-16.78
-0.65
14.69
27.77
37.72
44.20
47.15
46.73
43.30
37.55
30.57
23.65
17.99
14.31
12.65
12.41
12.69
12.63
11.71
9.89
7.46
4.82
2.26
-0.19
-2.81
-6.01
-10.23
-15.78
-22.71
-30.74
-39.15
-46.78
-52.19
-53.91
-50.89
-42.89
-30.64
-15.73
-0.17
14.17
25.94
34.47
39.66
41.66
40.74
37.26
31.72
24.99
18.17
12.46
8.80
7.49
8.17
9.85
11.36
11.76
10.66
8.27
5.15
1.88
-1.22
-4.19
-7.39
-11.27
-16.22
-22.46
-29.97
-38.41
-47.00
-54.44
-59.10
-59.39
-54.27
-43.74
-28.94
-11.90
5.07
19.99
31.64
39.67
44.28
45.94
45.10
42.16
37.57
31.95
26.11
20.90
17.01
14.67
13.65
13.35
13.04
12.11
10.26
7.54
4.31
0.94
-2.28
-5.31
-8.38
-11.90
-16.35
-22.07
-29.10
-37.04
-44.93
-51.46
-55.12
-54.67
-49.47
-39.73
-26.46
-11.26
4.18
18.40
30.35
39.38
45.14
47.54
46.71
43.13
37.60
31.19
25.00
19.95
16.59
14.97
14.79
15.44
16.23
16.49
15.76
13.82
10.81
7.07
3.05
-0.89
-4.61
-8.25
-12.14
-16.64
-22.09
-28.57
-35.78
-43.00
-49.04
-52.47
-51.95
-46.72
-36.90
-23.57
-8.49
6.41
19.51
29.83
36.99
41.04
42.17
40.67
36.93
31.60
25.56
19.86
15.41
12.73
11.81
12.10
12.79
13.13
12.65
11.26
9.19
6.69
3.96
1.04
-2.20
-5.84
-9.94
-14.58
-19.82
-25.79
-32.49
-39.56
-46.11
-50.76
-52.00
-48.77
-40.94
-29.37
-15.72
-1.79
10.89
21.40
29.28
34.36
36.53
35.78
32.28
26.67
19.98
13.50
8.28
4.92
3.40
3.18
3.51
3.68
3.27
2.14
0.43
-1.56
-3.56
-5.40
-7.12
-9.00
-11.47
-15.01
-19.98
-26.36
-33.66
-40.83
-46.46
-49.05
-47.52
-41.50
-31.54
-18.92
-5.31
7.66
18.74
27.14
32.42
34.39
33.15
29.07
22.99
16.10
9.73
4.95
2.29
1.63
2.28
3.39
4.18
4.24
3.55
2.34
0.82
-0.93
-3.05
-5.77
-9.38
-14.06
-19.92
-26.86
-34.54
-42.25
-48.88
-53.02
-53.30
-48.87
-39.77
-27.00
-12.28
2.46
15.63
26.26
33.91
38.56
40.33
39.38
36.05
30.94
24.91
19.01
14.20
11.00
9.42
8.95
8.79
8.19
6.71
4.31
1.27
-2.01
-5.21
-8.23
-11.19
-14.37
-18.15
-22.91
-28.88
-35.97
-43.61
-50.65
-55.56
-56.73
-53.09
-44.44
-31.68
-16.49
-0.84
13.54
25.59
34.89
41.48
45.52
47.11
46.28
43.21
38.36
32.56
26.84
22.10
18.89
17.19
16.54
16.22
15.52
14.00
11.57
8.39
4.83
1.14
-2.59
-6.52
-10.92
-16.07
-22.13
-29.04
-36.60
-44.38
-51.65
-57.35
-60.20
-58.94
-52.79
-41.87
-27.28
-10.92
5.10
19.01
29.77
37.11
41.27
42.73
41.99
39.49
35.76
31.36
26.94
23.14
20.40
18.85
18.31
18.35
18.39
17.97
16.73
14.60
11.66
8.10
4.09
-0.21
-4.75
-9.56
-14.65
-20.13
-26.12
-32.74
-39.92
-47.19
-53.68
-58.11
-59.16
-55.83
-47.85
-35.76
-20.92
-5.07
9.97
22.71
32.18
37.98
40.25
39.50
36.48
32.06
27.07
22.27
18.21
15.25
13.53
13.03
13.50
14.54
15.66
16.37
16.32
15.36
13.56
11.14
8.33
5.24
1.86
-1.95
-6.29
-11.26
-16.92
-23.35
-30.58
-38.39
-46.10
-52.44
-55.76
-54.58
-48.13
-36.76
-21.92
-5.74
9.67
22.73
32.65
39.26
42.73
43.34
41.37
37.19
31.36
24.73
18.28
12.93
9.34
7.68
7.65
8.61
9.77
10.46
10.32
9.30
7.58
5.42
2.98
0.32
-2.65
-5.97
-9.75
-14.11
-19.25
-25.30
-32.17
-39.34
-45.73
-49.88
-50.32
-46.09
-37.22
-24.68
-10.24
4.14
16.76
26.52
32.98
36.14
36.30
33.87
29.40
23.63
17.51
12.03
8.06
5.99
5.69
6.51
7.59
8.14
7.72
6.32
4.24
1.95
-0.31
-2.53
-4.97
-8.04
-12.14
-17.52
-24.21
-31.82
-39.58
-46.32
-50.66
-51.27
-47.28
-38.63
-26.16
-11.41
3.72
17.49
28.61
36.38
40.60
41.34
38.92
33.86
27.01
19.51
12.66
7.46
4.41
3.31
3.36
3.56
3.15
1.78
-0.36
-2.81
-5.17
-7.32
-9.51
-12.22
-15.98
-21.08
-27.50
-34.80
-42.17
-48.55
-52.72
-53.54
-50.17
-42.37
-30.68
-16.34
-1.01
13.60
26.11
35.72
42.12
45.28
45.35
42.55
37.28
30.30
22.71
15.73
10.43
7.28
6.04
5.90
5.84
5.10
3.45
1.18
-1.15
-3.12
-4.69
-6.22
-8.36
-11.72
-16.72
-23.42
-31.40
-39.77
-47.28
-52.46
-53.91
-50.73
-42.79
-30.91
-16.58
-1.58
12.45
24.32
33.37
39.36
42.29
42.40
40.09
35.94
30.79
25.56
21.01
17.67
15.60
14.47
13.77
12.98
11.75
9.98
7.76
5.31
2.78
0.17
-2.68
-6.13
-10.53
-16.20
-23.19
-31.15
-39.31
-46.38
-50.88
-51.41
-47.09
-37.94
-24.92
-9.68
5.85
19.96
31.46
39.76
44.74
46.47
45.22
41.42
35.84
29.53
23.57
18.88
15.82
14.10
12.99
11.68
9.66
6.90
3.86
1.03
-1.25
-3.06
-4.82
-7.16
-10.62
-15.57
-22.06
-29.78
-38.02
-45.61
-51.12
-53.11
-50.56
-43.31
-32.14
-18.59
-4.42
8.77
19.95
28.54
34.27
37.03
36.83
33.89
28.83
22.61
16.36
11.06
7.20
4.75
3.27
2.22
1.15
-0.07
-1.38
-2.69
-4.05
-5.63
-7.84
-11.04
-15.56
-21.58
-28.95
-37.18
-45.26
-51.77
-55.14
-54.05
-47.92
-37.16
-23.11
-7.61
7.45
20.63
31.05
38.28
42.16
42.67
39.96
34.57
27.52
20.13
13.79
9.47
7.43
7.22
7.84
8.26
7.78
6.27
3.99
1.44
-1.04
-3.45
-6.19
-9.94
-15.35
-22.80
-32.12
-42.48
-52.40
-60.06
-63.67
-62.02
-54.77
-42.64
-27.15
-10.27
6.07
20.35
31.52
39.07
42.89
43.17
40.42
35.44
29.26
23.02
17.70
13.88
11.63
10.55
9.93
9.07
7.59
5.49
3.05
0.67
-1.47
-3.51
-5.92
-9.34
-14.27
-20.94
-29.07
-37.85
-45.95
-51.73
-53.61
-50.47
-42.06
-29.16
-13.35
3.35
19.08
32.45
42.67
49.42
52.63
52.38
48.99
43.11
35.77
28.27
21.75
16.93
13.90
12.21
11.15
10.10
8.75
7.18
5.63
4.28
3.06
1.57
-0.70
-4.28
-9.47
-16.34
-24.61
-33.56
-42.06
-48.65
-51.85
-50.44
-43.97
-32.94
-18.66
-3.03
12.07
25.08
35.07
41.60
44.67
44.49
41.47
36.29
29.86
23.30
17.69
13.78
11.81
11.44
11.87
12.22
11.82
10.43
8.28
5.80
3.37
1.08
-1.34
-4.46
-8.87
-15.00
-22.93
-32.18
-41.72
-50.05
-55.46
-56.42
-51.99
-42.18
-27.95
-11.06
6.49
22.85
36.62
46.96
53.46
56.00
54.80
50.37
43.63
35.82
28.25
22.00
17.63
15.10
13.88
13.16
12.23
10.66
8.44
5.85
3.33
1.14
-0.74
-2.68
-5.32
-9.36
-15.30
-23.24
-32.68
-42.45
-50.92
-56.25
-56.89
-51.96
-41.61
-27.00
-10.06
7.05
22.43
34.73
43.27
47.92
48.87
46.55
41.63
35.03
27.91
21.47
16.67
13.93
12.96
12.91
12.72
11.59
9.30
6.19
2.94
0.18
-1.87
-3.50
-5.38
-8.26
-12.71
-18.94
-26.67
-35.11
-43.02
-48.90
-51.18
-48.73
-41.17
-29.07
-13.86
2.64
18.57
32.38
43.04
49.96
52.95
52.24
48.46
42.55
35.73
29.17
23.79
20.06
17.94
16.99
16.58
16.09
15.09
13.39
11.07
8.29
5.23
1.88
-1.91
-6.42
-11.90
-18.52
-26.16
-34.32
-42.07
-48.07
-50.94
-49.51
-43.31
-32.66
-18.67
-2.94
12.73
26.68
37.59
44.57
47.25
45.79
40.88
33.64
25.44
17.60
11.17
6.69
4.17
3.20
3.08
3.15
2.96
2.37
1.44
0.28
-1.15
-3.11
-6.03
-10.39
-16.44
-24.03
-32.47
-40.57
-46.77
-49.51
-47.71
-41.03
-30.03
-16.01
-0.79
13.84
26.33
35.61
41.12
42.73
40.81
36.05
29.47
22.26
15.56
10.23
6.67
4.71
3.82
3.33
2.70
1.70
0.35
-1.19
-2.92
-5.04
-8.01
-12.33
-18.32
-25.91
-34.44
-42.72
-49.17
-52.19
-50.61
-44.00
-32.90
-18.69
-3.23
11.55
24.04
33.15
38.30
39.46
37.01
31.72
24.73
17.27
10.52
5.25
1.77
-0.15
-1.05
-1.56
-2.11
-2.88
-3.80
-4.79
-5.89
-7.37
-9.75
-13.59
-19.31
-26.85
-35.52
-43.92
-50.25
-52.71
-50.05
-42.01
-29.45
-14.04
2.17
17.24
29.69
38.58
43.55
44.64
42.35
37.52
31.29
24.87
19.27
15.07
12.26
10.43
8.92
7.25
5.16
2.78
0.38
-1.80
-3.79
-5.88
-8.66
-12.80
-18.84
-26.97
-36.83
-47.34
-56.80
-63.15
-64.50
-59.78
-49.12
-33.85
-16.16
1.57
17.45
30.38
40.02
46.49
50.05
50.86
49.06
44.96
39.18
32.67
26.56
21.84
19.08
18.15
18.34
18.61
17.95
15.82
12.30
7.93
3.37
-1.01
-5.28
-9.93
-15.53
-22.51
-30.91
-40.40
-50.28
-59.47
-66.61
-70.16
-68.74
-61.57
-48.77
-31.53
-11.83
8.07
26.18
41.14
52.27
59.39
62.68
62.49
59.39
54.22
48.02
41.91
36.81
33.23
31.16
30.18
29.68
29.17
28.41
27.50
26.63
25.85
24.93
23.41
20.71
16.46
10.70
3.85
-3.38
-10.27
-16.34
-21.50
-26.05
-30.60
-35.89
-42.54
-50.75
-60.06
-69.20
-76.27
-79.17
-76.30
-67.07
-52.25
-33.69
-13.86
4.95
21.03
33.57
42.42
47.84
50.19
49.88
47.42
43.47
38.90
34.63
31.37
29.51
28.98
29.43
30.33
31.22
31.73
31.65
30.91
29.51
27.49
24.91
21.84
18.31
14.34
9.89
5.04
-0.09
-5.25
-10.23
-14.87
-19.14
-23.19
-27.21
-31.47
-36.22
-41.75
-48.21
-55.51
-63.02
-69.57
-73.52
-73.15
-67.29
-55.78
-39.70
-21.11
-2.48
14.01
26.90
35.66
40.47
41.89
40.59
37.29
32.68
27.56
22.71
18.80
16.23
15.07
15.10
15.90
17.06
18.15
18.82
18.74
17.73
15.77
13.02
9.74
6.20
2.55
-1.24
-5.30
-9.84
-15.08
-21.18
-28.18
-35.85
-43.50
-49.94
-53.66
-53.19
-47.68
-37.23
-22.98
-6.79
9.27
23.44
34.52
41.95
45.62
45.68
42.53
36.79
29.45
21.73
14.89
9.86
7.05
6.18
6.50
7.06
7.10
6.24
4.55
2.36
0.09
-2.07
-4.14
-6.42
-9.36
-13.39
-18.78
-25.52
-33.19
-40.95
-47.61
-51.84
-52.42
-48.64
-40.54
-28.90
-15.08
-0.65
12.98
24.69
33.77
39.67
42.09
40.99
36.74
30.20
22.66
15.45
9.68
5.85
3.86
3.11
2.81
2.28
1.06
-0.94
-3.59
-6.63
-9.79
-12.97
-16.31
-20.18
-25.06
-31.29
-38.83
-47.07
-54.82
-60.50
-62.53
-59.82
-52.06
-39.89
-24.75
-8.46
7.24
21.01
32.03
39.89
44.45
45.74
44.02
39.83
34.07
27.88
22.32
18.14
15.55
14.27
13.66
13.04
11.89
9.96
7.30
4.17
0.82
-2.58
-6.07
-9.94
-14.65
-20.68
-28.25
-37.14
-46.52
-54.98
-60.81
-62.39
-58.71
-49.66
-36.18
-19.96
-3.05
12.67
25.88
35.98
42.90
46.93
48.44
47.78
45.31
41.46
36.82
32.11
28.04
25.12
23.49
22.87
22.69
22.22
20.94
18.63
15.45
11.76
7.95
4.18
0.37
-3.71
-8.43
-14.04
-20.73
-28.56
-37.36
-46.64
-55.43
-62.36
-65.83
-64.50
-57.68
-45.67
-29.72
-11.69
6.41
22.92
36.75
47.37
54.63
58.62
59.56
57.90
54.32
49.74
45.15
41.36
38.71
37.07
35.92
34.70
33.06
30.98
28.75
26.60
24.59
22.50
19.99
16.77
12.78
8.16
3.17
-1.87
-6.76
-11.37
-15.69
-19.82
-24.06
-28.84
-34.60
-41.53
-49.30
-56.94
-62.94
-65.60
-63.57
-56.30
-44.20
-28.60
-11.38
5.58
20.69
33.00
42.10
47.93
50.68
50.65
48.32
44.35
39.60
34.99
31.22
28.69
27.30
26.62
26.10
25.28
24.03
22.52
21.05
19.83
18.80
17.61
15.77
12.89
8.86
3.97
-1.21
-6.01
-9.97
-12.96
-15.28
-17.46
-20.13
-23.81
-28.76
-34.93
-41.97
-49.12
-55.28
-59.13
-59.34
-54.95
-45.77
-32.60
-17.06
-1.19
13.08
24.42
32.28
36.76
38.29
37.38
34.52
30.21
25.08
19.94
15.55
12.49
10.98
10.83
11.57
12.68
13.75
14.48
14.69
14.22
12.95
10.80
7.79
4.07
-0.12
-4.54
-9.02
-13.51
-18.11
-23.10
-28.78
-35.27
-42.27
-48.89
-53.66
-54.99
-51.73
-43.61
-31.54
-17.29
-2.94
9.73
19.64
26.42
30.22
31.36
30.19
27.07
22.45
16.95
11.44
6.76
3.63
2.37
2.83
4.40
6.30
7.73
8.24
7.70
6.34
4.48
2.32
-0.06
-2.79
-6.03
-9.90
-14.46
-19.73
-25.73
-32.32
-39.05
-45.02
-48.93
-49.47
-45.70
-37.50
-25.76
-12.14
1.41
13.25
22.39
28.55
31.97
33.04
32.09
29.39
25.20
20.04
14.70
10.12
7.01
5.68
5.79
6.61
7.20
6.84
5.28
2.71
-0.39
-3.56
-6.58
-9.52
-12.76
-16.70
-21.68
-27.80
-34.94
-42.59
-49.94
-55.79
-58.85
-57.97
-52.58
-42.92
-30.06
-15.64
-1.41
11.24
21.45
28.91
33.67
35.94
35.99
34.13
30.81
26.64
22.35
18.63
15.99
14.54
14.04
13.96
13.67
12.68
10.73
7.86
4.37
0.61
-3.16
-6.83
-10.50
-14.49
-19.17
-24.87
-31.82
-39.86
-48.34
-56.12
-61.65
-63.40
-60.28
-52.08
-39.54
-24.23
-8.10
7.06
19.95
29.86
36.65
40.49
41.73
40.84
38.37
34.92
31.06
27.28
23.92
21.18
19.13
17.76
16.97
16.51
16.06
15.24
13.67
11.16
7.74
3.62
-0.85
-5.38
-9.84
-14.34
-19.21
-24.85
-31.58
-39.45
-47.99
-56.24
-62.81
-66.17
-65.06
-58.89
-48.03
-33.73
-17.79
-2.12
11.78
23.03
31.31
36.75
39.68
40.42
39.39
37.04
33.94
30.62
27.55
24.92
22.84
21.31
20.24
19.62
19.31
19.05
18.49
17.24
15.05
11.87
7.86
3.23
-1.70
-6.70
-11.55
-16.12
-20.48
-24.92
-29.91
-35.96
-43.19
-51.15
-58.62
-63.95
-65.35
-61.68
-52.67
-39.18
-22.92
-6.02
9.57
22.49
32.04
38.20
41.35
42.00
40.68
37.86
34.09
30.03
26.35
23.61
22.08
21.68
21.96
22.36
22.34
21.60
20.08
17.84
14.99
11.59
7.68
3.33
-1.25
-5.78
-9.94
-13.57
-16.81
-20.12
-24.13
-29.44
-36.21
-43.91
-51.34
-56.81
-58.62
-55.59
-47.42
-34.88
-19.58
-3.53
11.43
23.91
33.15
39.00
41.68
41.61
39.31
35.33
30.32
24.94
19.91
15.85
13.17
12.01
12.12
12.96
13.85
14.14
13.47
11.82
9.45
6.75
3.99
1.26
-1.61
-4.94
-9.04
-14.18
-20.40
-27.49
-34.80
-41.36
-45.86
-47.00
-43.88
-36.27
-24.86
-11.02
3.43
16.78
27.75
35.64
40.28
41.81
40.51
36.74
31.02
24.09
17.00
10.82
6.47
4.32
4.11
5.04
6.14
6.60
6.05
4.59
2.60
0.47
-1.62
-3.83
-6.47
-9.99
-14.67
-20.62
-27.69
-35.35
-42.74
-48.65
-51.77
-50.90
-45.47
-35.73
-22.73
-8.12
6.32
19.04
29.00
35.69
38.98
39.04
36.28
31.35
25.22
18.95
13.56
9.74
7.66
6.96
6.98
6.95
6.35
5.02
3.09
0.88
-1.41
-3.70
-6.22
-9.37
-13.62
-19.35
-26.67
-35.20
-44.01
-51.69
-56.60
-57.33
-53.09
-44.01
-31.15
-16.20
-1.06
12.73
24.12
32.78
38.68
41.99
42.85
41.34
37.79
32.75
27.15
21.98
18.04
15.60
14.32
13.51
12.34
10.31
7.36
3.80
0.10
-3.39
-6.61
-9.74
-13.18
-17.37
-22.67
-29.29
-37.20
-45.91
-54.52
-61.65
-65.70
-65.31
-59.71
-49.11
-34.66
-18.13
-1.50
13.61
26.16
35.72
42.28
46.05
47.27
46.21
43.21
38.83
33.87
29.19
25.54
23.33
22.49
22.51
22.67
22.30
21.01
18.69
15.53
11.77
7.63
3.22
-1.44
-6.40
-11.69
-17.39
-23.64
-30.63
-38.46
-46.96
-55.45
-62.66
-66.96
-66.77
-61.13
-50.16
-35.04
-17.73
-0.33
15.41
28.44
38.36
45.14
48.99
50.13
48.90
45.88
41.81
37.56
33.83
31.04
29.21
28.06
27.21
26.30
25.09
23.47
21.40
18.78
15.49
11.44
6.60
1.16
-4.56
-10.17
-15.38
-20.19
-24.96
-30.28
-36.73
-44.47
-52.99
-60.99
-66.72
-68.35
-64.65
-55.36
-41.37
-24.42
-6.61
10.11
24.40
35.58
43.50
48.32
50.35
49.98
47.75
44.33
40.44
36.77
33.71
31.38
29.62
28.22
26.97
25.81
24.73
23.66
22.41
20.65
18.02
14.27
9.42
3.78
-2.11
-7.69
-12.57
-16.68
-20.37
-24.23
-28.98
-35.14
-42.86
-51.59
-60.06
-66.48
-68.90
-65.85
-56.80
-42.53
-24.84
-6.13
11.31
25.81
36.56
43.53
47.04
47.58
45.63
41.75
36.59
31.00
25.86
21.91
19.48
18.54
18.71
19.48
20.34
20.93
20.98
20.28
18.68
16.10
12.60
8.36
3.66
-1.24
-6.26
-11.47
-17.16
-23.72
-31.36
-39.85
-48.37
-55.53
-59.69
-59.39
-53.85
-43.35
-29.12
-13.04
2.90
16.99
28.12
35.82
40.04
41.06
39.35
35.52
30.37
24.82
19.74
15.81
13.32
12.15
11.87
11.91
11.80
11.33
10.50
9.44
8.29
7.03
5.48
3.25
-0.05
-4.81
-11.25
-19.28
-28.42
-37.72
-45.82
-51.21
-52.59
-49.23
-41.19
-29.32
-15.07
-0.14
13.88
25.75
34.61
39.98
41.70
39.95
35.30
28.69
21.37
14.54
9.15
5.61
3.75
2.99
2.62
2.08
1.11
-0.32
-2.12
-4.25
-6.75
-9.81
-13.68
-18.68
-24.93
-32.35
-40.40
-48.07
-53.92
-56.44
-54.43
-47.45
-35.95
-21.27
-5.21
10.34
23.80
34.13
40.82
43.82
43.46
40.32
35.19
29.05
22.96
17.77
14.04
11.73
10.39
9.28
7.74
5.44
2.48
-0.71
-3.66
-6.19
-8.53
-11.26
-15.14
-20.76
-28.33
-37.38
-46.86
-55.19
-60.58
-61.54
-57.16
-47.55
-33.78
-17.60
-1.04
14.14
26.72
36.09
42.14
44.98
44.86
42.22
37.64
32.00
26.29
21.40
17.92
15.90
14.93
14.32
13.43
11.89
9.66
7.02
4.25
1.49
-1.43
-4.95
-9.65
-15.99
-24.05
-33.46
-43.23
-51.92
-57.84
-59.45
-55.80
-46.80
-33.37
-17.14
-0.08
16.01
29.83
40.68
48.32
52.73
54.01
52.38
48.27
42.48
36.10
30.28
25.90
23.32
22.24
21.90
21.32
19.79
17.02
13.24
8.99
4.81
0.96
-2.68
-6.50
-10.97
-16.47
-23.21
-31.15
-39.96
-48.90
-56.79
-62.10
-63.19
-58.90
-48.95
-34.20
-16.51
1.80
18.56
32.26
42.24
48.55
51.61
51.84
49.65
45.44
39.82
33.67
27.99
23.65
21.11
20.25
20.47
20.91
20.83
19.76
17.65
14.74
11.32
7.69
3.93
0.03
-4.18
-8.92
-14.51
-21.16
-28.94
-37.61
-46.36
-53.84
-58.41
-58.49
-53.09
-42.29
-27.25
-9.96
7.28
22.49
34.40
42.50
46.88
47.90
46.04
41.83
35.97
29.36
23.05
18.00
14.79
13.45
13.49
14.09
14.44
14.02
12.71
10.70
8.34
5.89
3.45
0.90
-2.03
-5.64
-10.22
-16.04
-23.19
-31.47
-40.21
-48.21
-53.90
-55.68
-52.46
-44.05
-31.28
-15.83
0.32
15.28
27.71
36.87
42.48
44.57
43.36
39.31
33.18
26.06
19.24
13.88
10.76
9.91
10.74
12.17
13.16
13.01
11.54
9.01
5.93
2.71
-0.45
-3.63
-7.12
-11.33
-16.69
-23.44
-31.50
-40.24
-48.41
-54.37
-56.34
-53.10
-44.38
-31.09
-15.09
1.41
16.41
28.55
37.27
42.55
44.61
43.79
40.44
35.14
28.72
22.27
16.87
13.29
11.73
11.71
12.31
12.50
11.50
9.05
5.41
1.18
-3.06
-6.94
-10.54
-14.25
-18.65
-24.26
-31.31
-39.65
-48.68
-57.33
-64.11
-67.43
-65.91
-58.92
-46.86
-31.14
-13.83
2.99
17.77
29.73
38.72
44.87
48.26
48.84
46.61
41.88
35.48
28.58
22.45
17.94
15.33
14.23
13.85
13.42
12.40
10.67
8.43
6.01
3.60
1.13
-1.70
-5.30
-9.99
-15.93
-23.13
-31.38
-40.20
-48.73
-55.68
-59.49
-58.71
-52.55
-41.28
-26.23
-9.43
6.94
21.29
32.75
41.17
46.77
49.78
50.34
48.64
45.09
40.41
35.50
31.22
28.08
26.14
25.06
24.34
23.45
22.04
19.94
17.17
13.86
10.21
6.36
2.42
-1.65
-5.98
-10.84
-16.54
-23.34
-31.32
-40.18
-49.08
-56.59
-60.94
-60.48
-54.28
-42.48
-26.45
-8.35
9.44
24.96
37.01
45.15
49.50
50.52
48.81
45.06
40.11
34.83
30.03
26.24
23.71
22.35
21.85
21.87
22.07
22.17
21.93
21.08
19.37
16.62
12.84
8.25
3.20
-1.89
-6.74
-11.27
-15.66
-20.29
-25.58
-31.89
-39.32
-47.57
-55.75
-62.47
-65.99
-64.72
-57.82
-45.53
-29.31
-11.41
5.79
20.41
31.44
38.76
42.75
43.95
42.83
39.78
35.32
30.17
25.21
21.22
18.68
17.62
17.70
18.37
19.09
19.43
19.19
18.22
16.48
13.96
10.71
6.90
2.74
-1.51
-5.63
-9.51
-13.19
-16.91
-21.07
-26.13
-32.34
-39.49
-46.66
-52.30
-54.62
-52.16
-44.35
-31.89
-16.50
-0.44
14.19
25.94
34.20
38.96
40.65
39.75
36.83
32.50
27.53
22.76
18.98
16.68
15.91
16.30
17.22
18.02
18.26
17.69
16.28
14.08
11.15
7.48
3.18
-1.53
-6.34
-10.88
-15.01
-18.80
-22.58
-26.85
-32.04
-38.27
-45.22
-52.07
-57.55
-60.23
-58.83
-52.67
-41.92
-27.68
-11.73
3.94
17.55
28.01
34.93
38.53
39.29
37.84
34.76
30.64
26.10
21.77
18.26
15.95
14.86
14.67
14.81
14.69
13.89
12.27
9.97
7.24
4.29
1.31
-1.70
-4.74
-7.88
-11.19
-14.77
-18.81
-23.54
-29.20
-35.80
-42.95
-49.66
-54.51
-55.93
-52.72
-44.58
-32.26
-17.46
-2.26
11.42
22.33
29.99
34.53
36.38
35.99
33.74
30.02
25.30
20.22
15.55
11.99
9.93
9.40
9.97
10.95
11.61
11.43
10.22
8.08
5.37
2.38
-0.65
-3.72
-6.90
-10.37
-14.31
-18.91
-24.37
-30.73
-37.71
-44.52
-49.89
-52.31
-50.47
-43.81
-32.80
-18.89
-4.06
9.74
21.10
29.35
34.44
36.69
36.42
33.99
29.75
24.20
18.10
12.36
7.80
4.97
3.87
4.09
4.93
5.64
5.71
4.89
3.27
1.13
-1.26
-3.71
-6.22
-8.90
-11.93
-15.48
-19.70
-24.68
-30.34
-36.33
-41.86
-45.74
-46.65
-43.52
-35.96
-24.63
-10.98
3.05
15.68
25.68
32.54
36.25
37.08
35.39
31.53
26.03
19.63
13.32
8.07
4.60
3.13
3.35
4.57
5.96
6.88
6.97
6.19
4.64
2.52
0.03
-2.71
-5.66
-8.88
-12.64
-17.25
-23.08
-30.16
-38.09
-45.89
-52.13
-55.27
-54.12
-48.20
-37.92
-24.54
-9.81
4.36
16.43
25.44
31.09
33.55
33.28
30.82
26.72
21.62
16.28
11.59
8.30
6.79
6.84
7.72
8.48
8.32
6.89
4.37
1.27
-1.92
-4.93
-7.80
-10.77
-14.16
-18.21
-23.05
-28.70
-35.02
-41.52
-47.32
-51.18
-51.80
-48.18
-40.07
-28.14
-13.85
0.90
14.34
25.15
32.64
36.64
37.38
35.23
30.78
24.73
18.03
11.75
6.85
3.94
3.04
3.61
4.69
5.39
5.15
3.93
2.05
0.00
-1.97
-3.92
-6.23
-9.34
-13.65
-19.28
-26.07
-33.50
-40.73
-46.61
-49.83
-49.22
-44.11
-34.69
-22.04
-7.95
5.65
17.13
25.55
30.65
32.64
31.94
29.02
24.44
18.93
13.40
8.82
5.84
4.68
4.99
5.97
6.78
6.75
5.65
3.59
0.92
-2.00
-5.02
-8.21
-11.83
-16.24
-21.75
-28.48
-36.20
-44.24
-51.46
-56.42
-57.65
-54.15
-45.68
-33.03
-17.77
-1.94
12.60
24.52
33.13
38.35
40.36
39.51
36.20
31.04
24.92
18.94
14.16
11.31
10.49
11.12
12.20
12.70
11.90
9.70
6.49
2.94
-0.32
-2.99
-5.18
-7.40
-10.31
-14.56
-20.48
-27.95
-36.31
-44.38
-50.68
-53.65
-52.11
-45.58
-34.49
-20.16
-4.41
10.83
24.01
34.24
41.16
44.90
45.75
44.12
40.51
35.60
30.23
25.31
21.53
19.31
18.54
18.83
19.50
19.94
19.70
18.56
16.52
13.76
10.45
6.74
2.69
-1.69
-6.43
-11.66
-17.51
-24.12
-31.47
-39.16
-46.19
-51.19
-52.60
-49.28
-40.90
-28.13
-12.51
4.05
19.68
32.96
43.06
49.66
52.87
53.07
50.90
47.16
42.71
38.40
34.87
32.46
31.24
31.02
31.47
32.24
32.97
33.34
33.06
31.86
29.57
26.16
21.73
16.55
11.04
5.57
0.41
-4.38
-8.95
-13.67
-18.97
-25.20
-32.35
-39.85
-46.62
-51.14
-51.93
-47.99
-39.16
-26.27
-11.00
4.64
18.82
30.26
38.40
43.29
45.31
44.96
42.73
39.16
34.82
30.36
26.47
23.64
22.15
21.93
22.63
23.75
24.76
25.20
24.82
23.45
21.13
18.01
14.25
10.05
5.60
1.10
-3.34
-7.65
-11.99
-16.65
-22.05
-28.46
-35.67
-42.89
-48.73
-51.51
-49.90
-43.34
-32.36
-18.41
-3.49
10.45
21.99
30.31
35.27
37.14
36.37
33.48
29.08
23.88
18.72
14.35
11.36
9.94
9.88
10.66
11.64
12.31
12.42
11.93
10.84
9.17
6.86
3.85
0.20
-3.88
-8.13
-12.38
-16.61
-21.02
-25.88
-31.36
-37.22
-42.76
-46.81
-48.06
-45.45
-38.59
-28.06
-15.15
-1.65
10.77
20.92
28.22
32.67
34.50
34.04
31.61
27.57
22.45
16.92
11.78
7.72
5.23
4.41
4.99
6.31
7.59
8.07
7.28
5.15
1.97
-1.76
-5.57
-9.20
-12.63
-16.01
-19.58
-23.58
-28.20
-33.62
-39.85
-46.61
-53.16
-58.22
-60.27
-58.01
-50.92
-39.46
-25.11
-9.90
4.24
15.91
24.57
30.34
33.64
34.95
34.63
32.96
30.26
27.02
23.80
21.10
19.17
17.99
17.30
16.78
16.12
15.16
13.75
11.81
9.28
6.15
2.49
-1.52
-5.66
-9.76
-13.73
-17.60
-21.50
-25.66
-30.34
-35.71
-41.59
-47.35
-51.90
-53.85
-52.06
-45.97
-35.89
-23.00
-8.91
4.76
16.70
26.14
32.78
36.65
37.98
37.17
34.77
31.42
27.87
24.76
22.49
21.13
20.47
20.14
19.82
19.36
18.76
18.13
17.47
16.60
15.20
12.96
9.71
5.55
0.78
-4.19
-9.01
-13.54
-17.81
-22.06
-26.60
-31.70
-37.49
-43.84
-50.25
-55.83
-59.40
-59.71
-55.92
-47.84
-36.12
-22.17
-7.72
5.60
16.68
25.00
30.57
33.68
34.67
33.89
31.67
28.48
24.87
21.45
18.68
16.79
15.71
15.17
14.93
14.77
14.57
14.22
13.53
12.27
10.20
7.23
3.49
-0.67
-4.89
-8.85
-12.43
-15.74
-19.05
-22.74
-27.14
-32.47
-38.59
-44.80
-49.94
-52.51
-51.23
-45.49
-35.71
-23.18
-9.71
2.94
13.58
21.63
27.07
30.07
30.86
29.62
26.57
22.15
17.02
11.94
7.61
4.49
2.70
2.10
2.35
3.03
3.71
4.08
3.94
3.18
1.85
-0.04
-2.42
-5.24
-8.49
-12.18
-16.37
-21.20
-26.85
-33.38
-40.60
-47.86
-54.00
-57.61
-57.40
-52.71
-43.70
-31.48
-17.67
-3.99
8.22
18.14
25.54
30.53
33.33
34.12
33.04
30.32
26.31
21.62
16.96
13.02
10.23
8.68
8.08
7.85
7.38
6.21
4.17
1.39
-1.83
-5.18
-8.47
-11.70
-15.04
-18.77
-23.17
-28.50
-34.91
-42.31
-50.28
-57.87
-63.75
-66.39
-64.56
-57.70
-46.24
-31.52
-15.47
-0.01
13.30
23.64
30.87
35.28
37.37
37.58
36.28
33.78
30.48
26.87
23.43
20.58
18.54
17.26
16.46
15.78
14.87
13.46
11.47
8.90
5.85
2.38
-1.40
-5.41
-9.56
-13.77
-18.12
-22.82
-28.25
-34.71
-42.18
-50.03
-57.00
-61.41
-61.64
-56.73
-46.75
-32.85
-16.91
-0.99
13.13
24.39
32.43
37.45
39.92
40.40
39.36
37.20
34.26
30.92
27.61
24.79
22.82
21.84
21.75
22.14
22.49
22.28
21.21
19.26
16.55
13.29
9.67
5.73
1.46
-3.24
-8.41
-14.09
-20.35
-27.32
-35.06
-43.30
-51.31
-57.81
-61.18
-59.96
-53.42
-41.96
-27.03
-10.71
4.93
18.42
29.03
36.70
41.67
44.14
44.26
42.30
38.71
34.25
29.80
26.08
23.48
22.01
21.36
21.11
20.88
20.37
19.40
17.86
15.71
13.01
9.89
6.45
2.79
-1.13
-5.45
-10.38
-16.14
-22.82
-30.36
-38.32
-45.90
-51.86
-54.84
-53.62
-47.52
-36.80
-22.56
-6.60
9.11
22.87
33.60
40.84
44.77
45.80
44.51
41.49
37.26
32.36
27.38
22.98
19.71
17.97
17.72
18.47
19.39
19.66
18.73
16.52
13.41
9.95
6.59
3.45
0.36
-3.08
-7.26
-12.47
-18.80
-26.13
-34.03
-41.60
-47.66
-50.83
-49.94
-44.48
-34.75
-21.85
-7.37
7.10
20.23
31.09
39.11
43.96
45.55
44.10
40.15
34.58
28.44
22.68
18.00
14.75
12.88
12.10
11.89
11.67
10.94
9.40
7.08
4.25
1.32
-1.46
-4.18
-7.27
-11.35
-16.95
-24.14
-32.31
-40.24
-46.24
-48.67
-46.39
-39.14
-27.64
-13.37
1.80
16.13
28.21
37.17
42.62
44.53
43.15
39.04
33.11
26.48
20.30
15.44
12.29
10.67
9.95
9.36
8.36
6.74
4.65
2.46
0.50
-1.14
-2.64
-4.43
-7.10
-11.23
-17.19
-25.03
-34.21
-43.59
-51.60
-56.44
-56.63
-51.44
-41.17
-27.07
-11.05
4.90
19.16
30.68
39.05
44.28
46.52
46.05
43.17
38.40
32.59
26.80
22.05
19.03
17.79
17.80
18.15
17.97
16.73
14.40
11.27
7.77
4.27
0.88
-2.48
-6.11
-10.37
-15.67
-22.27
-30.16
-38.88
-47.41
-54.29
-57.89
-56.89
-50.66
-39.52
-24.71
-8.18
7.99
22.05
32.88
40.08
43.87
44.78
43.46
40.49
36.45
31.89
27.39
23.54
20.77
19.29
18.93
19.23
19.53
19.22
17.96
15.74
12.82
9.51
5.98
2.24
-1.86
-6.41
-11.46
-17.06
-23.32
-30.40
-38.28
-46.40
-53.61
-58.21
-58.56
-53.58
-43.34
-28.97
-12.37
4.30
19.22
31.15
39.51
44.22
45.67
44.45
41.32
37.07
32.43
27.97
24.09
21.06
19.01
17.92
17.61
17.70
17.72
17.20
15.84
13.52
10.37
6.67
2.66
-1.50
-5.75
-10.09
-14.51
-18.92
-23.29
-27.71
-32.44
-37.83
-43.97
-50.46
-56.17
-59.51
-58.81
-52.97
-41.96
-26.89
-9.76
7.14
21.84
33.10
40.51
44.27
44.92
43.09
39.39
34.44
28.88
23.42
18.70
15.24
13.23
12.56
12.85
13.63
14.46
15.00
15.04
14.45
13.14
11.02
8.12
4.52
0.44
-3.90
-8.28
-12.70
-17.34
-22.59
-28.78
-35.99
-43.75
-50.93
-55.96
-57.18
-53.43
-44.50
-31.28
-15.58
0.36
14.57
25.66
33.13
37.11
38.12
36.70
33.39
28.67
23.24
17.89
13.48
10.59
9.33
9.26
9.69
9.89
9.45
8.35
6.82
5.12
3.43
1.72
-0.11
-2.25
-4.90
-8.31
-12.72
-18.29
-25.00
-32.42
-39.71
-45.70
-49.10
-48.80
-44.17
-35.35
-23.19
-9.09
5.23
18.18
28.51
35.51
39.02
39.30
36.89
32.48
26.91
21.05
15.70
11.53
8.88
7.73
7.64
7.87
7.71
6.64
4.58
1.85
-1.03
-3.67
-6.04
-8.53
-11.74
-16.25
-22.28
-29.60
-37.49
-44.92
-50.64
-53.43
-52.35
-46.98
-37.60
-25.21
-11.32
2.38
14.41
23.79
29.99
32.95
32.85
30.07
25.28
19.36
13.39
8.39
5.05
3.55
3.46
4.03
4.45
4.16
3.03
1.28
-0.76
-2.88
-5.12
-7.83
-11.40
-16.18
-22.32
-29.62
-37.59
-45.33
-51.63
-55.19
-54.86
-49.99
-40.75
-28.11
-13.64
0.87
13.91
24.40
31.81
35.99
37.13
35.54
31.77
26.57
20.88
15.70
11.84
9.72
9.24
9.83
10.69
11.01
10.32
8.45
5.65
2.28
-1.33
-5.03
-8.97
-13.49
-19.05
-26.00
-34.42
-43.88
-53.41
-61.55
-66.55
-66.91
-61.78
-51.31
-36.68
-19.81
-2.81
12.60
25.40
35.24
42.22
46.50
48.16
47.25
44.00
39.02
33.31
28.03
24.12
22.00
21.44
21.66
21.75
21.02
19.21
16.53
13.43
10.27
7.15
3.89
0.15
-4.38
-9.86
-16.29
-23.65
-31.82
-40.53
-49.11
-56.37
-60.77
-60.82
-55.57
-45.05
-30.39
-13.47
3.62
19.11
31.90
41.56
48.14
51.91
53.19
52.32
49.75
46.09
42.02
38.19
35.05
32.81
31.35
30.50
29.99
29.62
29.18
28.40
26.97
24.53
20.87
16.01
10.30
4.23
-1.68
-7.16
-12.29
-17.45
-23.19
-29.97
-37.95
-46.80
-55.62
-63.03
-67.44
-67.33
-61.79
-50.80
-35.41
-17.45
0.89
17.68
31.67
42.35
49.75
54.14
55.82
55.07
52.31
48.27
43.84
39.96
37.30
36.04
35.91
36.33
36.68
36.53
35.74
34.39
32.65
30.72
28.61
26.14
23.03
19.00
13.93
8.01
1.62
-4.74
-10.59
-15.69
-20.05
-23.90
-27.80
-32.37
-38.20
-45.51
-53.95
-62.38
-69.04
-72.01
-69.74
-61.75
-48.69
-32.28
-14.68
2.10
16.60
28.07
36.29
41.32
43.31
42.58
39.68
35.46
30.95
27.14
24.70
23.78
24.08
24.99
25.91
26.42
26.35
25.71
24.53
22.77
20.26
16.86
12.54
7.48
2.04
-3.34
-8.35
-12.92
-17.21
-21.62
-26.56
-32.35
-38.95
-45.92
-52.28
-56.71
-57.86
-54.69
-46.96
-35.25
-20.95
-5.75
8.73
21.31
31.30
38.35
42.39
43.48
41.93
38.30
33.48
28.47
24.21
21.32
19.99
19.94
20.64
21.47
21.89
21.54
20.28
18.14
15.18
11.50
7.20
2.37
-2.84
-8.17
-13.30
-17.94
-21.98
-25.61
-29.29
-33.63
-39.09
-45.58
-52.37
-58.03
-60.81
-59.22
-52.53
-41.06
-26.16
-9.80
5.99
19.62
30.22
37.58
42.01
43.95
43.87
42.11
39.03
35.02
30.64
26.47
23.03
20.64
19.23
18.52
18.04
17.33
16.11
14.28
11.93
9.26
6.44
3.62
0.77
-2.19
-5.47
-9.33
-14.01
-19.74
-26.52
-34.08
-41.71
-48.25
-52.30
-52.50
-48.08
-39.09
-26.54
-12.04
2.59
15.82
26.65
34.63
39.64
41.78
41.24
38.38
33.77
28.18
22.53
17.70
14.31
12.59
12.23
12.60
12.88
12.42
10.92
8.55
5.79
3.14
0.84
-1.23
-3.47
-6.38
-10.35
-15.56
-21.94
-29.14
-36.50
-43.02
-47.50
-48.67
-45.66
-38.31
-27.27
-13.95
-0.13
12.47
22.58
29.49
33.03
33.42
31.17
26.97
21.69
16.23
11.47
8.01
6.07
5.45
5.60
5.83
5.54
4.40
2.39
-0.27
-3.27
-6.39
-9.54
-12.89
-16.74
-21.48
-27.31
-34.10
-41.25
-47.65
-52.01
-53.11
-50.17
-43.16
-32.80
-20.35
-7.30
4.96
15.39
23.35
28.63
31.23
31.35
29.28
25.49
20.62
15.49
10.97
7.76
6.16
5.92
6.34
6.57
5.93
4.19
1.56
-1.49
-4.54
-7.47
-10.54
-14.19
-18.91
-25.03
-32.60
-41.23
-50.16
-58.11
-63.56
-65.01
-61.44
-52.68
-39.61
-23.93
-7.65
7.45
20.20
30.22
37.57
42.52
45.32
46.09
44.96
42.27
38.55
34.50
30.76
27.67
25.26
23.28
21.29
18.99
16.22
13.04
9.62
6.19
2.89
-0.31
-3.51
-6.90
-10.64
-14.95
-20.00
-26.00
-33.01
-40.82
-48.70
-55.39
-59.33
-59.02
-53.67
-43.44
-29.47
-13.58
2.26
16.43
27.91
36.29
41.65
44.29
44.63
43.10
40.15
36.27
31.94
27.65
23.81
20.77
18.66
17.45
16.97
16.89
16.81
16.33
15.08
12.73
9.18
4.49
-1.03
-6.89
-12.65
-18.05
-23.18
-28.45
-34.41
-41.40
-49.34
-57.53
-64.67
-69.16
-69.41
-64.27
-53.41
-37.47
-18.07
2.56
22.08
38.56
50.80
58.46
61.88
61.79
59.10
54.78
49.76
44.96
41.11
38.66
37.63
37.70
38.25
38.71
38.65
37.88
36.39
34.16
31.14
27.16
22.09
15.91
8.91
1.55
-5.58
-11.99
-17.47
-22.13
-26.45
-31.10
-36.67
-43.34
-50.64
-57.38
-61.85
-62.37
-57.85
-48.29
-34.83
-19.47
-4.38
8.66
18.58
25.14
28.63
29.49
28.23
25.28
21.15
16.48
12.01
8.45
6.26
5.57
6.08
7.22
8.34
8.91
8.73
7.83
6.45
4.83
3.10
1.26
-0.78
-3.17
-6.07
-9.68
-14.22
-19.84
-26.53
-33.86
-40.90
-46.30
-48.69
-47.07
-41.21
-31.74
-19.98
-7.45
4.48
14.87
23.17
29.07
32.33
32.82
30.64
26.27
20.62
14.80
9.86
6.47
4.74
4.32
4.57
4.86
4.73
4.04
2.82
1.21
-0.73
-2.99
-5.64
-8.73
-12.38
-16.68
-21.71
-27.46
-33.66
-39.67
-44.42
-46.69
-45.46
-40.22
-31.27
-19.60
-6.63
6.14
17.39
26.17
31.84
34.17
33.29
29.76
24.45
18.45
12.80
8.26
5.19
3.47
2.72
2.33
1.78
0.75
-0.80
-2.67
-4.58
-6.33
-7.97
-9.86
-12.58
-16.68
-22.42
-29.59
-37.42
-44.73
-50.03
-52.03
-49.82
-43.21
-32.85
-20.02
-6.32
6.66
17.75
26.22
31.85
34.67
34.89
32.80
28.87
23.79
18.45
13.72
10.19
8.03
6.90
6.25
5.49
4.26
2.46
0.23
-2.21
-4.75
-7.40
-10.36
-14.01
-18.76
-24.89
-32.39
-40.69
-48.59
-54.53
-56.92
-54.70
-47.71
-36.74
-23.26
-8.99
4.59
16.48
26.15
33.37
37.97
39.79
38.84
35.40
30.22
24.37
19.00
14.99
12.64
11.61
11.19
10.65
9.48
7.58
5.20
2.61
-0.01
-2.72
-5.71
-9.27
-13.63
-18.98
-25.42
-32.91
-41.11
-49.30
-56.24
-60.46
-60.57
-55.79
-46.21
-32.86
-17.49
-1.96
12.15
23.93
32.96
39.23
42.89
44.08
43.05
40.16
36.00
31.32
26.89
23.30
20.86
19.51
18.91
18.57
17.95
16.65
14.49
11.53
7.96
4.05
-0.06
-4.27
-8.60
-13.13
-17.88
-22.98
-28.60
-34.96
-42.08
-49.55
-56.38
-61.01
-61.74
-57.32
-47.46
-33.12
-16.21
0.97
16.37
28.71
37.55
43.02
45.55
45.54
43.39
39.61
34.87
30.00
25.75
22.64
20.84
20.16
20.14
20.32
20.29
19.74
18.54
16.66
14.14
11.05
7.44
3.34
-1.18
-6.01
-10.97
-15.92
-20.91
-26.20
-32.14
-38.91
-46.19
-52.98
-57.73
-58.77
-54.90
-45.89
-32.63
-16.88
-0.71
14.08
26.27
35.33
41.14
43.88
43.84
41.44
37.27
32.13
26.83
22.10
18.45
16.10
15.03
15.03
15.70
16.56
17.08
16.85
15.59
13.32
10.26
6.72
3.02
-0.69
-4.35
-8.06
-12.01
-16.41
-21.53
-27.58
-34.48
-41.79
-48.53
-53.34
-54.68
-51.38
-43.06
-30.37
-14.94
1.08
15.64
27.31
35.47
40.28
42.28
42.04
39.99
36.44
31.82
26.74
22.02
18.41
16.36
15.84
16.31
17.04
17.36
16.84
15.34
12.91
9.72
5.91
1.69
-2.79
-7.28
-11.69
-16.03
-20.61
-25.86
-32.20
-39.70
-47.89
-55.62
-61.25
-63.08
-59.89
-51.33
-38.14
-21.99
-4.98
10.85
23.98
33.60
39.51
41.97
41.52
38.78
34.41
29.18
23.83
19.05
15.41
13.17
12.32
12.50
13.16
13.69
13.60
12.65
10.86
8.44
5.68
2.73
-0.41
-3.83
-7.68
-12.09
-17.20
-23.19
-30.19
-38.17
-46.66
-54.54
-60.14
-61.68
-57.85
-48.42
-34.41
-17.78
-0.88
14.28
26.42
35.11
40.47
42.86
42.70
40.34
36.29
31.17
25.81
21.03
17.51
15.53
15.00
15.49
16.40
17.16
17.32
16.67
15.14
12.79
9.73
6.11
2.11
-2.12
-6.45
-10.88
-15.57
-20.85
-27.09
-34.41
-42.47
-50.30
-56.38
-59.04
-56.93
-49.55
-37.41
-21.98
-5.18
11.03
25.09
35.96
43.17
46.72
46.92
44.40
39.97
34.58
29.18
24.52
21.02
18.81
17.72
17.42
17.58
17.91
18.13
18.02
17.33
15.84
13.36
9.94
5.74
1.10
-3.67
-8.45
-13.34
-18.74
-25.09
-32.66
-41.31
-50.26
-58.14
-63.19
-63.77
-58.85
-48.42
-33.57
-16.24
1.32
17.15
29.96
39.22
44.93
47.40
46.98
44.09
39.26
33.25
26.99
21.38
17.09
14.41
13.29
13.35
14.14
15.12
15.76
15.65
14.50
12.27
9.08
5.26
1.12
-3.06
-7.22
-11.45
-16.00
-21.24
-27.48
-34.79
-42.77
-50.43
-56.26
-58.63
-56.18
-48.43
-35.92
-20.16
-3.26
12.71
26.08
35.97
42.15
44.90
44.70
42.04
37.44
31.49
25.00
18.87
13.98
10.95
9.89
10.40
11.68
12.87
13.30
12.64
10.96
8.58
5.86
3.01
0.02
-3.33
-7.31
-12.19
-18.12
-25.14
-33.04
-41.22
-48.62
-53.77
-55.09
-51.39
-42.35
-28.78
-12.45
4.38
19.65
31.89
40.49
45.44
47.12
46.03
42.66
37.61
31.59
25.49
20.14
16.22
13.96
13.15
13.21
13.39
13.05
11.82
9.69
6.95
3.95
0.94
-2.07
-5.32
-9.18
-14.01
-19.99
-27.05
-34.80
-42.50
-49.03
-53.07
-53.36
-49.07
-40.10
-27.26
-12.04
3.73
18.30
30.32
38.97
43.91
45.18
43.13
38.39
31.93
24.88
18.44
13.57
10.77
9.90
10.32
11.09
11.35
10.59
8.75
6.17
3.28
0.41
-2.42
-5.51
-9.32
-14.32
-20.75
-28.53
-37.09
-45.40
-52.08
-55.67
-54.96
-49.42
-39.38
-26.01
-10.97
3.98
17.41
28.34
36.18
40.67
41.65
39.26
34.07
27.04
19.56
12.94
8.14
5.47
4.54
4.59
4.76
4.44
3.40
1.69
-0.50
-2.97
-5.65
-8.64
-12.11
-16.35
-21.66
-28.29
-36.22
-44.96
-53.42
-59.98
-62.90
-60.82
-53.33
-41.11
-25.78
-9.33
6.34
19.86
30.49
37.93
42.09
43.02
40.99
36.63
30.90
25.00
20.06
16.81
15.39
15.41
16.10
16.64
16.40
15.13
12.94
10.18
7.19
4.17
0.99
-2.72
-7.50
-13.84
-21.90
-31.33
-41.18
-49.97
-56.02
-57.81
-54.41
-45.81
-32.95
-17.47
-1.24
14.03
27.14
37.46
44.78
49.10
50.58
49.41
45.97
40.92
35.17
29.75
25.56
23.09
22.28
22.54
23.01
22.85
21.52
18.92
15.32
11.22
7.04
2.99
-0.97
-5.06
-9.59
-14.82
-21.02
-28.30
-36.55
-45.26
-53.38
-59.35
-61.48
-58.44
-49.70
-35.91
-18.70
-0.23
17.33
32.38
44.06
52.14
56.82
58.41
57.30
53.99
49.18
43.82
38.93
35.33
33.38
32.93
33.37
33.95
34.04
33.35
31.94
30.04
27.83
25.32
22.28
18.36
13.30
7.14
0.26
-6.69
-13.02
-18.28
-22.43
-25.96
-29.61
-34.16
-40.15
-47.57
-55.87
-63.84
-69.93
-72.58
-70.61
-63.59
-51.94
-36.85
-19.94
-2.91
12.78
26.03
36.16
42.84
46.10
46.37
44.34
40.91
36.98
33.25
30.18
27.95
26.58
25.95
25.87
26.11
26.42
26.59
26.39
25.63
24.09
21.58
17.95
13.31
7.89
2.22
-3.23
-8.06
-12.24
-16.10
-20.25
-25.36
-31.77
-39.20
-46.71
-52.80
-55.83
-54.54
-48.48
-38.15
-24.84
-10.25
3.99
16.57
26.67
33.84
37.91
38.91
37.11
33.02
27.35
21.07
15.13
10.42
7.49
6.50
7.07
8.47
9.79
10.26
9.52
7.65
5.08
2.32
-0.34
-2.88
-5.60
-8.87
-13.06
-18.38
-24.91
-32.50
-40.67
-48.42
-54.35
-56.87
-54.73
-47.46
-35.69
-20.90
-5.09
9.85
22.54
32.24
38.70
42.01
42.37
40.10
35.65
29.68
23.04
16.67
11.43
7.88
6.17
5.96
6.56
7.23
7.31
6.47
4.68
2.15
-0.88
-4.20
-7.77
-11.59
-15.82
-20.67
-26.35
-33.03
-40.64
-48.68
-56.17
-61.68
-63.67
-60.96
-53.15
-40.94
-25.88
-10.02
4.79
17.28
26.96
33.90
38.41
40.68
40.74
38.65
34.71
29.65
24.40
19.90
16.71
14.90
14.09
13.69
13.10
12.02
10.36
8.26
5.89
3.34
0.58
-2.52
-6.12
-10.34
-15.34
-21.21
-28.01
-35.65
-43.73
-51.34
-57.13
-59.55
-57.29
-49.81
-37.61
-22.14
-5.45
10.50
24.22
34.99
42.65
47.37
49.37
48.84
46.08
41.55
36.01
30.31
25.25
21.37
18.85
17.54
17.13
17.21
17.39
17.27
16.52
14.92
12.35
8.86
4.62
-0.09
-4.98
-9.85
-14.61
-19.36
-24.39
-30.09
-36.74
-44.28
-52.09
-58.88
-62.96
-62.68
-57.04
-46.07
-30.97
-13.75
3.34
18.43
30.35
38.74
43.76
45.78
45.22
42.53
38.28
33.18
28.00
23.39
19.75
17.15
15.47
14.48
13.95
13.73
13.61
13.31
12.53
10.92
8.23
4.47
-0.10
-5.02
-9.79
-14.04
-17.76
-21.24
-25.09
-29.96
-36.26
-43.84
-51.89
-58.97
-63.31
-63.32
-58.05
-47.60
-33.14
-16.60
-0.10
14.55
26.27
34.66
39.86
42.21
42.12
40.01
36.43
32.06
27.64
23.81
20.93
18.99
17.76
16.90
16.13
15.21
13.96
12.23
9.93
7.04
3.71
0.15
-3.44
-6.98
-10.59
-14.56
-19.25
-24.94
-31.62
-38.96
-46.14
-51.95
-55.02
-54.12
-48.57
-38.54
-25.09
-9.97
4.89
17.83
27.83
34.54
38.13
39.00
37.59
34.37
29.82
24.57
19.40
15.09
12.22
10.99
11.14
12.06
13.02
13.33
12.58
10.66
7.80
4.38
0.89
-2.41
-5.48
-8.59
-12.22
-16.87
-22.90
-30.37
-38.98
-47.93
-56.01
-61.68
-63.37
-59.99
-51.25
-37.96
-21.82
-4.97
10.62
23.55
33.22
39.64
43.08
43.95
42.60
39.48
35.13
30.21
25.44
21.35
18.30
16.34
15.35
15.04
15.05
15.00
14.50
13.22
10.97
7.75
3.74
-0.78
-5.46
-10.05
-14.46
-18.86
-23.60
-29.12
-35.80
-43.64
-52.06
-59.80
-65.14
-66.35
-62.25
-52.62
-38.42
-21.44
-3.90
12.24
25.66
35.78
42.64
46.59
48.06
47.45
45.20
41.81
37.92
34.10
30.84
28.34
26.53
25.22
24.19
23.26
22.29
21.10
19.42
16.94
13.48
9.07
4.00
-1.32
-6.48
-11.25
-15.63
-19.90
-24.45
-29.73
-36.11
-43.60
-51.70
-59.28
-64.76
-66.44
-63.12
-54.50
-41.37
-25.43
-8.72
6.90
20.14
30.41
37.62
41.91
43.54
42.82
40.18
36.31
32.02
28.11
25.12
23.20
22.18
21.72
21.52
21.44
21.41
21.29
20.84
19.70
17.55
14.25
9.96
5.04
-0.13
-5.24
-10.20
-15.12
-20.21
-25.73
-31.89
-38.67
-45.71
-52.17
-56.80
-58.15
-55.05
-47.01
-34.59
-19.28
-3.09
11.99
24.50
33.73
39.63
42.56
43.02
41.42
38.18
33.74
28.64
23.54
19.07
15.70
13.59
12.60
12.29
12.08
11.47
10.14
8.09
5.55
2.82
0.05
-2.79
-5.88
-9.46
-13.63
-18.40
-23.74
-29.59
-35.86
-42.18
-47.76
-51.31
-51.40
-46.97
-37.87
-25.01
-10.19
4.50
17.34
27.36
34.34
38.51
40.18
39.60
36.87
32.25
26.28
19.88
14.11
9.88
7.61
7.16
7.88
8.85
9.27
8.62
6.86
4.25
1.24
-1.78
-4.66
-7.45
-10.44
-13.97
-18.39
-23.97
-30.77
-38.61
-46.92
-54.67
-60.42
-62.61
-59.99
-52.12
-39.56
-23.85
-7.09
8.64
21.78
31.50
37.77
40.95
41.68
40.45
37.72
33.91
29.50
25.06
21.16
18.32
16.71
16.21
16.38
16.62
16.37
15.24
13.13
10.13
6.46
2.37
-1.97
-6.50
-11.20
-16.15
-21.47
-27.34
-33.95
-41.32
-49.08
-56.39
-61.84
-63.79
-60.89
-52.59
-39.47
-23.17
-5.89
10.26
23.73
33.82
40.52
44.21
45.40
44.55
42.08
38.46
34.22
29.97
26.18
23.20
21.15
19.94
19.38
19.17
19.01
18.61
17.71
16.07
13.57
10.18
6.04
1.40
-3.45
-8.29
-13.11
-18.15
-23.84
-30.58
-38.49
-47.21
-55.70
-62.43
-65.65
-63.97
-56.81
-44.64
-28.95
-11.84
4.55
18.58
29.33
36.64
40.83
42.38
41.79
39.50
35.97
31.83
27.74
24.32
21.91
20.51
19.84
19.51
19.25
18.95
18.61
18.20
17.55
16.30
14.11
10.78
6.45
1.49
-3.59
-8.45
-13.01
-17.59
-22.69
-28.82
-36.22
-44.55
-52.89
-59.80
-63.65
-63.06
-57.37
-46.90
-32.92
-17.31
-2.05
11.22
21.55
28.64
32.64
33.89
32.83
29.90
25.74
21.15
17.05
14.30
13.43
14.44
16.78
19.59
21.89
22.97
22.55
20.81
18.25
15.51
13.05
11.13
9.80
9.02
8.68
8.71
8.93
9.07
8.69
7.38
4.86
1.12
-3.48
-8.30
-12.76
-16.50
-19.63
-22.75
-26.68
-32.07
-39.01
-46.82
-54.05
-58.90
-59.74
-55.59
-46.49
-33.52
-18.40
-3.10
10.70
21.81
29.69
34.26
35.79
34.67
31.46
26.83
21.54
16.41
12.12
9.08
7.36
6.73
6.75
6.91
6.83
6.27
5.18
3.69
1.93
-0.05
-2.44
-5.52
-9.70
-15.32
-22.53
-31.24
-40.87
-50.44
-58.52
-63.50
-63.98
-59.19
-49.29
-35.44
-19.45
-3.34
11.26
23.31
32.36
38.36
41.34
41.42
38.86
34.18
28.28
22.28
17.27
13.95
12.43
12.25
12.55
12.46
11.36
9.15
6.11
2.78
-0.33
-3.02
-5.45
-8.10
-11.61
-16.54
-23.25
-31.70
-41.47
-51.62
-60.75
-67.23
-69.52
-66.58
-58.29
-45.52
-29.90
-13.40
2.21
15.71
26.48
34.40
39.55
42.09
42.21
40.20
36.55
31.96
27.30
23.36
20.69
19.37
19.08
19.13
18.81
17.55
15.16
11.85
8.06
4.22
0.56
-3.00
-6.79
-11.24
-16.77
-23.63
-31.82
-41.01
-50.44
-58.84
-64.55
-65.92
-61.77
-51.87
-37.15
-19.48
-1.12
15.83
29.90
40.38
47.18
50.55
50.98
49.05
45.49
41.12
36.74
33.03
30.35
28.74
27.95
27.56
27.09
26.12
24.39
21.77
18.33
14.28
9.86
5.25
0.53
-4.39
-9.72
-15.72
-22.59
-30.37
-38.83
-47.32
-54.71
-59.52
-60.25
-55.89
-46.27
-32.31
-15.73
1.39
17.15
30.27
40.12
46.63
49.96
50.40
48.31
44.21
38.76
32.82
27.27
22.84
19.95
18.63
18.51
18.99
19.40
19.17
18.01
15.87
12.92
9.42
5.58
1.52
-2.72
-7.19
-12.03
-17.46
-23.79
-31.15
-39.36
-47.56
-54.30
-57.82
-56.59
-49.87
-38.03
-22.51
-5.36
11.31
25.84
37.19
44.90
48.95
49.57
47.27
42.73
36.88
30.70
25.13
20.86
18.17
16.93
16.67
16.72
16.36
15.12
12.79
9.53
5.77
1.97
-1.52
-4.63
-7.64
-11.04
-15.39
-21.14
-28.33
-36.62
-45.10
-52.47
-57.18
-57.88
-53.74
-44.81
-32.03
-17.00
-1.60
12.55
24.31
33.06
38.54
40.74
39.85
36.31
30.98
24.98
19.52
15.58
13.57
13.24
13.90
14.63
14.74
13.90
12.18
9.95
7.60
5.31
2.96
0.18
-3.55
-8.65
-15.33
-23.54
-32.84
-42.35
-50.77
-56.48
-57.90
-53.95
-44.57
-30.78
-14.56
1.83
16.43
28.07
36.36
41.51
43.85
43.68
41.28
37.04
31.75
26.41
22.04
19.31
18.29
18.46
18.93
18.83
17.65
15.31
12.19
8.76
5.47
2.42
-0.62
-4.18
-8.87
-15.16
-23.17
-32.43
-41.94
-50.22
-55.64
-56.83
-53.06
-44.46
-32.01
-17.28
-1.98
12.33
24.54
33.91
40.03
42.64
41.84
38.05
32.19
25.54
19.37
14.64
11.74
10.42
10.04
9.89
9.34
8.15
6.38
4.30
2.24
0.37
-1.43
-3.48
-6.30
-10.38
-16.03
-23.15
-31.09
-38.71
-44.51
-46.97
-45.03
-38.39
-27.70
-14.38
-0.22
13.04
24.13
32.28
37.23
38.95
37.71
33.92
28.36
21.95
15.73
10.59
7.00
4.91
3.87
3.26
2.51
1.34
-0.19
-1.87
-3.50
-5.12
-7.08
-9.94
-14.31
-20.58
-28.69
-37.97
-47.15
-54.57
-58.51
-57.70
-51.63
-40.79
-26.46
-10.43
5.47
19.75
31.37
39.75
44.71
46.34
44.97
41.19
35.89
30.03
24.54
20.06
16.83
14.63
13.02
11.45
9.57
7.28
4.70
2.04
-0.53
-3.07
-5.86
-9.40
-14.23
-20.78
-29.16
-38.92
-48.96
-57.61
-62.93
-63.30
-57.87
-46.96
-31.94
-14.84
2.21
17.47
29.87
38.91
44.52
46.87
46.25
43.16
38.31
32.64
27.17
22.79
20.03
18.95
19.12
19.74
20.02
19.33
17.41
14.45
10.83
7.00
3.18
-0.61
-4.65
-9.31
-14.96
-21.90
-30.21
-39.65
-49.58
-58.88
-66.07
-69.54
-68.04
-61.00
-48.86
-32.94
-15.19
2.45
18.38
31.63
41.80
48.86
52.91
54.12
52.92
49.89
45.91
41.90
38.59
36.28
34.78
33.61
32.24
30.40
28.15
25.78
23.59
21.65
19.68
17.23
13.77
8.99
2.97
-3.78
-10.54
-16.63
-21.70
-25.85
-29.68
-34.05
-39.76
-47.17
-55.94
-64.91
-72.31
-76.24
-75.18
-68.48
-56.55
-40.74
-22.90
-4.90
11.71
25.91
37.14
45.22
50.18
52.29
52.00
49.93
46.79
43.33
40.22
37.93
36.68
36.38
36.66
37.00
36.88
36.01
34.35
32.11
29.57
26.94
24.17
21.04
17.24
12.58
7.08
1.06
-5.01
-10.73
-15.80
-20.20
-24.11
-27.88
-32.01
-37.00
-43.14
-50.34
-57.88
-64.47
-68.44
-68.25
-63.00
-52.76
-38.56
-22.15
-5.45
9.86
22.58
32.08
38.16
40.95
40.77
38.20
33.96
28.89
23.81
19.43
16.26
14.46
13.98
14.53
15.66
16.84
17.55
17.37
16.06
13.62
10.29
6.43
2.39
-1.62
-5.63
-9.88
-14.70
-20.43
-27.27
-35.08
-43.36
-51.13
-57.08
-59.80
-58.16
-51.69
-40.76
-26.60
-10.96
4.37
17.90
28.75
36.55
41.32
43.22
42.39
39.11
33.86
27.46
20.95
15.35
11.40
9.27
8.59
8.67
8.75
8.29
6.99
4.90
2.19
-0.95
-4.37
-8.03
-12.02
-16.57
-21.99
-28.51
-36.12
-44.39
-52.32
-58.52
-61.43
-59.86
-53.32
-42.23
-27.91
-12.08
3.44
17.22
28.33
36.41
41.45
43.64
43.30
40.82
36.71
31.60
26.23
21.26
17.21
14.26
12.30
10.92
9.64
8.09
6.13
3.90
1.62
-0.53
-2.57
-4.79
-7.62
-11.53
-16.86
-23.76
-32.09
-41.32
-50.44
-58.02
-62.43
-62.25
-56.71
-46.05
-31.49
-14.90
1.73
16.74
29.07
38.27
44.33
47.41
47.80
45.86
42.09
37.17
31.93
27.17
23.44
20.91
19.30
18.03
16.48
14.26
11.34
7.99
4.58
1.29
-1.87
-5.19
-9.02
-13.65
-19.30
-26.08
-34.02
-42.96
-52.35
-61.13
-67.80
-70.74
-68.66
-61.14
-48.72
-32.85
-15.42
1.66
16.95
29.54
39.03
45.34
48.54
48.85
46.64
42.49
37.20
31.64
26.64
22.81
20.40
19.32
19.14
19.28
19.16
18.33
16.59
13.98
10.70
6.95
2.84
-1.66
-6.74
-12.62
-19.51
-27.60
-36.88
-47.02
-57.21
-66.12
-72.10
-73.51
-69.37
