1621949064.00
64.000000
-0.00
-0.00
-0.00
-0.00
-0.00
-0.00
-0.00
-0.00
-0.00
-0.00
0.00
0.01
0.01
-0.00
-0.03
-0.05
-0.05
0.00
0.13
0.36
0.66
1.01
1.37
1.72
2.06
2.40
2.79
3.24
3.80
4.42
5.06
5.66
6.20
6.68
7.15
7.68
8.31
9.14
10.09
11.04
11.88
12.56
13.14
13.76
14.65
15.96
17.91
20.32
22.90
25.38
27.58
29.57
31.68
34.32
37.81
42.54
48.15
54.10
59.83
64.97
69.58
74.14
79.34
85.71
93.76
103.00
112.62
121.73
129.77
136.75
143.30
150.75
157.77
166.64
177.95
191.79
206.97
220.57
228.25
225.36
208.53
176.87
132.76
80.05
23.07
-34.94
-92.44
-149.16
-205.23
-260.37
-313.74
-363.87
-409.83
-450.91
-486.50
-515.74
-537.23
-549.22
-549.96
-538.37
-514.21
-478.67
-433.88
-382.45
-327.02
-269.84
-212.63
-156.66
-102.95
-52.37
-5.90
35.58
71.43
101.35
125.50
144.38
158.69
169.15
176.37
180.75
182.57
182.07
179.51
175.23
169.65
163.18
156.15
148.81
141.30
133.69
126.02
118.33
110.69
103.16
95.80
88.68
81.83
75.25
68.95
62.95
57.25
51.86
46.78
42.03
37.59
33.45
29.61
26.07
22.81
19.83
17.11
14.67
12.48
10.54
8.83
7.35
6.07
4.97
4.05
3.27
2.62
2.09
1.65
1.30
1.01
0.79
0.61
0.48
0.37
0.29
0.24
0.20
0.18
0.18
0.18
0.20
0.22
0.25
0.28
0.32
0.36
0.40
0.45
0.49
0.54
0.59
0.64
0.70
0.76
0.82
0.89
0.96
1.05
1.14
1.25
1.36
1.49
1.64
1.80
1.98
2.19
2.41
2.66
2.94
3.24
3.57
3.94
4.34
4.78
5.25
5.76
6.30
6.89
7.52
8.19
8.90
9.66
10.47
11.32
12.21
13.16
14.15
15.20
16.32
17.51
18.74
20.02
21.28
22.49
23.55
24.36
24.80
24.74
24.08
22.73
20.65
17.85
14.41
10.41
6.03
1.48
-3.03
-7.28
-11.07
-14.26
-16.73
-18.44
-19.39
-19.62
-19.23
-18.33
-17.04
-15.48
-13.77
-12.01
-10.27
-8.56
-6.89
-5.23
-3.58
-1.89
-0.16
1.64
3.48
5.34
7.24
9.26
11.33
13.48
15.70
18.02
20.40
22.80
25.22
27.72
30.46
33.37
36.48
39.85
43.45
47.19
50.91
54.45
57.84
61.34
64.83
68.48
72.42
76.63
80.89
84.80
88.05
90.52
92.52
93.94
95.02
95.87
96.24
95.33
91.89
84.33
70.68
53.87
35.13
15.56
-3.96
-23.03
-41.75
-60.59
-80.25
-101.52
-124.98
-151.32
-179.91
-208.52
-233.57
-250.98
-257.49
-251.93
-235.63
-211.81
-184.93
-158.54
-134.64
-113.71
-95.47
-79.64
-66.25
-55.51
-47.29
-41.21
-36.24
-31.27
-25.63
-19.36
-13.20
-8.18
-5.09
-4.16
-5.18
-7.54
-10.55
-13.54
-15.92
-17.04
-16.21
-12.89
-6.85
1.51
11.36
21.63
31.30
39.62
46.15
50.65
53.09
53.54
52.30
49.90
47.08
44.52
42.67
41.59
40.94
40.27
39.21
37.67
35.84
34.02
32.34
30.66
28.61
25.79
22.04
17.52
12.68
8.01
3.87
0.35
-2.70
-5.54
-8.51
-11.87
-15.85
-20.43
-25.22
-29.42
-31.88
-31.50
-27.60
-20.31
-10.56
0.17
10.37
18.86
25.11
29.06
30.98
31.14
29.83
27.34
24.08
20.61
17.58
15.50
14.59
14.72
15.50
16.40
16.99
17.00
16.37
15.22
13.74
12.10
10.39
8.61
6.62
4.26
1.33
-2.27
-6.55
-11.48
-16.93
-22.72
-28.46
-33.56
-37.15
-38.33
-36.39
-31.24
-23.50
-14.37
-5.34
2.39
8.18
12.03
14.36
15.62
16.07
15.68
14.37
12.20
9.54
7.02
5.31
4.85
5.68
7.44
9.51
11.27
12.27
12.38
11.70
10.50
9.05
7.50
5.91
4.17
2.09
-0.56
-4.02
-8.50
-14.03
-20.38
-26.92
-32.65
-36.41
-37.09
-34.14
-27.79
-19.07
-9.57
-0.94
5.62
9.64
11.32
11.29
10.21
8.47
6.24
3.64
0.94
-1.35
-2.61
-2.43
-0.79
1.82
4.54
6.58
7.46
7.17
6.07
4.67
3.31
2.05
0.71
-1.00
-3.23
-6.07
-9.56
-13.75
-18.66
-24.02
-29.21
-33.11
-34.52
-32.55
-27.09
-18.92
-9.44
-0.16
7.81
13.96
18.37
21.27
22.83
23.05
21.83
19.28
15.82
12.19
9.21
7.48
7.18
7.97
9.23
10.23
10.49
9.81
8.33
6.32
4.05
1.65
-0.93
-3.78
-7.05
-10.84
-15.29
-20.52
-26.53
-33.05
-39.33
-44.24
-46.45
-44.95
-39.42
-30.47
-19.47
-8.15
1.96
9.97
15.65
19.32
21.44
22.32
22.04
20.66
18.36
15.59
13.04
11.33
10.82
11.35
12.35
13.10
13.04
12.00
10.21
8.16
6.21
4.53
2.91
0.95
-1.71
-5.26
-9.72
-14.96
-20.81
-27.03
-33.20
-38.55
-42.00
-42.42
-39.10
-32.08
-22.28
-11.24
-0.55
8.61
15.80
21.15
25.06
27.84
29.55
30.04
29.26
27.40
24.93
22.58
20.98
20.45
20.94
21.97
22.87
23.04
22.06
19.88
16.73
13.01
9.08
5.17
1.30
-2.59
-6.63
-10.94
-15.62
-20.74
-26.32
-32.12
-37.58
-41.78
-43.57
-42.00
-36.66
-28.01
-17.25
-6.02
4.16
12.29
18.05
21.69
23.69
24.53
24.51
23.80
22.58
21.14
19.88
19.23
19.44
20.51
22.12
23.69
24.61
24.44
23.03
20.60
17.55
14.39
11.45
8.82
6.42
4.02
1.45
-1.44
-4.73
-8.57
-13.08
-18.29
-23.94
-29.31
-33.29
-34.66
-32.51
-26.63
-17.69
-7.10
3.51
12.79
19.95
24.88
27.81
29.09
28.99
27.71
25.52
22.91
20.48
18.86
18.40
19.12
20.65
22.40
23.81
24.48
24.25
23.14
21.30
18.88
15.98
12.64
8.91
4.83
0.54
-3.78
-7.96
-11.85
-15.43
-18.77
-22.10
-25.65
-29.54
-33.64
-37.33
-39.68
-39.64
-36.56
-30.51
-22.34
-13.49
-5.36
1.08
5.60
8.50
10.30
11.36
11.78
11.54
10.71
9.53
8.36
7.48
6.93
6.57
6.24
6.06
6.48
8.15
11.62
16.94
23.55
30.40
36.30
40.32
42.04
41.53
39.08
35.05
29.64
22.93
15.03
6.14
-3.33
-12.73
-21.21
-27.78
-31.48
-31.63
-28.06
-21.23
-12.25
-2.52
6.56
14.01
19.24
22.19
22.98
21.92
19.40
15.92
12.15
8.80
6.51
5.64
6.13
7.56
9.26
10.54
10.93
10.29
8.72
6.54
4.04
1.41
-1.28
-4.03
-6.90
-9.93
-13.12
-16.58
-20.39
-24.58
-29.03
-33.32
-36.66
-38.06
-36.71
-32.26
-25.06
-16.14
-6.86
1.52
8.20
12.93
15.89
17.35
17.51
16.44
14.22
11.08
7.55
4.35
2.13
1.30
1.79
3.12
4.55
5.35
5.14
3.87
1.91
-0.25
-2.24
-3.94
-5.49
-7.20
-9.33
-12.07
-15.47
-19.54
-24.18
-29.12
-33.76
-37.21
-38.48
-36.78
-31.89
-24.31
-15.14
-5.71
2.79
9.65
14.64
17.94
19.86
20.66
20.48
19.40
17.61
15.43
13.39
12.04
11.71
12.37
13.61
14.75
15.16
14.46
12.66
10.07
7.09
4.05
1.07
-1.91
-5.08
-8.55
-12.43
-16.75
-21.59
-26.96
-32.67
-38.16
-42.52
-44.59
-43.36
-38.43
-30.23
-20.01
-9.42
0.04
7.41
12.49
15.63
17.37
18.17
18.19
17.49
16.10
14.27
12.44
11.13
10.70
11.19
12.30
13.44
14.04
13.68
12.30
10.11
7.48
4.78
2.16
-0.38
-2.99
-5.88
-9.17
-13.01
-17.44
-22.51
-28.07
-33.64
-38.35
-41.02
-40.57
-36.36
-28.61
-18.33
-7.10
3.50
12.34
18.93
23.37
26.04
27.31
27.42
26.48
24.65
22.23
19.65
17.38
15.80
15.07
15.13
15.68
16.30
16.59
16.24
15.19
13.49
11.34
8.93
6.36
3.59
0.53
-2.86
-6.57
-10.53
-14.75
-19.24
-24.10
-29.12
-33.76
-36.99
-37.70
-35.04
-28.86
-19.91
-9.58
0.49
9.00
15.27
19.30
21.49
22.35
22.31
21.58
20.30
18.67
16.98
15.57
14.74
14.60
15.02
15.74
16.41
16.75
16.58
15.85
14.57
12.77
10.53
7.89
4.97
1.84
-1.37
-4.58
-7.74
-10.90
-14.24
-18.02
-22.43
-27.40
-32.38
-36.39
-38.23
-36.90
-32.04
-24.13
-14.35
-4.27
4.70
11.67
16.35
18.94
19.88
19.62
18.49
16.75
14.66
12.56
10.81
9.77
9.60
10.26
11.47
12.81
13.87
14.35
14.12
13.20
11.70
9.76
7.53
5.11
2.61
0.10
-2.35
-4.71
-7.06
-9.59
-12.59
-16.30
-20.72
-25.43
-29.57
-32.01
-31.74
-28.27
-21.93
-13.74
-5.09
2.75
9.00
13.47
16.37
18.03
18.61
18.15
16.65
14.34
11.68
9.33
7.86
7.50
8.09
9.20
10.27
10.90
10.89
10.28
9.19
7.77
6.07
4.11
1.82
-0.81
-3.79
-7.08
-10.58
-14.28
-18.21
-22.46
-27.04
-31.67
-35.67
-38.11
-38.09
-35.12
-29.45
-21.95
-13.89
-6.43
-0.35
4.12
7.07
8.78
9.41
9.12
8.01
6.33
4.45
2.84
1.94
2.01
3.09
4.96
7.18
9.19
10.49
10.71
9.77
7.87
5.31
2.46
-0.45
-3.36
-6.33
-9.47
-12.91
-16.74
-21.03
-25.87
-31.19
-36.63
-41.43
-44.46
-44.54
-40.94
-33.76
-23.99
-13.26
-3.26
4.82
10.53
14.09
16.05
16.95
17.03
16.35
14.93
13.00
10.99
9.44
8.80
9.22
10.53
12.26
13.90
14.97
15.21
14.56
13.13
11.16
8.84
6.29
3.51
0.38
-3.28
-7.63
-12.73
-18.52
-24.69
-30.71
-35.78
-38.94
-39.31
-36.37
-30.19
-21.55
-11.74
-2.19
5.96
12.14
16.34
18.86
20.09
20.22
19.35
17.57
15.18
12.69
10.76
9.91
10.34
11.82
13.73
15.33
16.01
15.52
13.94
11.66
9.13
6.65
4.32
2.02
-0.53
-3.63
-7.49
-12.16
-17.52
-23.14
-28.33
-32.14
-33.59
-31.96
-27.04
-19.34
-9.94
-0.22
8.59
15.66
20.73
23.89
25.37
25.37
24.01
21.51
18.26
14.94
12.30
10.93
11.08
12.49
14.53
16.39
17.42
17.26
15.98
13.94
11.60
9.32
7.21
5.13
2.76
-0.20
-4.00
-8.71
-14.26
-20.34
-26.34
-31.36
-34.33
-34.29
-30.80
-24.17
-15.39
-5.89
2.99
10.32
15.67
18.99
20.36
19.86
17.68
14.22
10.24
6.70
4.46
3.97
5.06
7.10
9.19
10.62
11.00
10.41
9.16
7.64
6.08
4.51
2.82
0.79
-1.73
-4.80
-8.44
-12.61
-17.17
-21.78
-25.83
-28.46
-28.79
-26.22
-20.77
-13.09
-4.32
4.29
11.71
17.34
20.94
22.53
22.24
20.31
17.09
13.20
9.40
6.48
4.96
4.96
6.08
7.64
8.85
9.18
8.50
7.02
5.19
3.38
1.72
0.03
-2.07
-5.01
-9.01
-14.04
-19.68
-25.20
-29.65
-32.06
-31.68
-28.23
-22.04
-13.94
-5.09
3.41
10.71
16.41
20.34
22.49
22.87
21.54
18.76
15.07
11.30
8.28
6.62
6.42
7.25
8.38
9.07
8.86
7.69
5.84
3.69
1.50
-0.69
-3.05
-5.81
-9.16
-13.20
-17.83
-22.77
-27.46
-31.05
-32.62
-31.37
-27.00
-19.84
-10.85
-1.32
7.50
14.75
19.98
23.09
24.20
23.46
21.15
17.75
13.99
10.67
8.48
7.74
8.23
9.35
10.31
10.50
9.65
7.89
5.61
3.23
1.00
-1.11
-3.38
-6.22
-10.00
-14.84
-20.49
-26.20
-30.88
-33.30
-32.52
-28.31
-21.26
-12.56
-3.66
4.29
10.65
15.24
18.14
19.38
18.92
16.82
13.46
9.63
6.34
4.43
4.20
5.37
7.16
8.70
9.38
9.01
7.79
6.08
4.21
2.30
0.27
-2.12
-5.15
-9.07
-13.98
-19.60
-25.29
-30.01
-32.61
-32.16
-28.30
-21.44
-12.60
-3.13
5.75
13.16
18.64
22.06
23.41
22.81
20.49
16.97
13.00
9.47
7.11
6.25
6.77
8.11
9.55
10.41
10.32
9.25
7.46
5.30
3.07
0.87
-1.44
-4.11
-7.44
-11.67
-16.78
-22.41
-27.82
-32.01
-33.87
-32.59
-27.99
-20.58
-11.49
-2.09
6.38
13.22
18.22
21.54
23.40
23.89
23.01
20.91
17.99
14.99
12.75
11.86
12.45
14.01
15.74
16.82
16.76
15.55
13.54
11.25
9.02
6.93
4.76
2.13
-1.29
-5.69
-11.00
-16.85
-22.54
-27.17
-29.72
-29.35
-25.68
-18.98
-10.13
-0.36
9.09
17.30
23.76
28.38
31.15
32.11
31.30
28.88
25.34
21.38
17.86
15.48
14.51
14.74
15.51
16.01
15.63
14.09
11.48
8.20
4.69
1.30
-1.77
-4.47
-6.82
-8.96
-11.08
-13.49
-16.39
-19.75
-23.05
-25.24
-25.02
-21.29
-13.65
-2.75
9.89
22.37
33.10
41.23
46.79
50.26
52.14
52.61
51.51
48.67
44.29
39.08
34.09
30.35
28.45
28.42
29.71
31.54
33.06
33.61
32.81
30.55
27.03
22.64
17.97
13.62
9.94
6.97
4.15
0.43
-5.50
-14.66
-27.21
-41.93
-56.14
-66.38
-69.49
-63.88
-50.40
-32.20
-13.67
1.14
9.92
12.53
10.50
5.87
0.05
-6.44
-13.74
-21.73
-29.62
-36.04
-39.65
-40.05
-37.93
-34.95
-32.78
-32.43
-33.87
-36.18
-38.13
-38.73
-37.53
-34.71
-30.87
-26.80
-23.27
-20.88
-19.92
-20.45
-22.27
-25.07
-28.35
-31.48
-33.60
-33.76
-31.12
-25.28
-16.63
-6.26
4.24
13.28
19.79
23.47
24.74
24.33
23.04
21.36
19.53
17.68
16.03
14.94
14.85
16.06
18.48
21.56
24.43
26.25
26.46
25.03
22.37
19.06
15.58
12.13
8.62
4.84
0.67
-3.81
-8.44
-13.06
-17.73
-22.64
-27.83
-32.88
-36.78
-38.19
-35.96
-29.77
-20.39
-9.46
1.13
9.95
16.40
20.69
23.34
24.77
25.10
24.32
22.54
20.14
17.77
16.08
15.39
15.65
16.50
17.38
17.81
17.46
16.15
13.84
10.58
6.56
2.04
-2.63
-7.12
-11.17
-14.63
-17.50
-19.95
-22.28
-24.89
-28.19
-32.36
-37.20
-41.94
-45.35
-46.07
-43.02
-35.87
-25.23
-12.47
0.66
12.60
22.34
29.58
34.51
37.60
39.22
39.63
38.99
37.49
35.51
33.56
32.17
31.64
31.88
32.47
32.82
32.38
30.83
28.17
24.55
20.28
15.51
10.43
5.17
-0.07
-5.00
-9.42
-13.24
-16.67
-20.16
-24.25
-29.30
-35.26
-41.52
-46.98
-50.32
-50.41
-46.67
-39.29
-29.21
-17.84
-6.77
2.73
9.87
14.51
16.94
17.65
17.18
15.97
14.43
12.99
12.15
12.38
13.88
16.48
19.59
22.43
24.29
24.77
23.92
22.01
19.40
16.33
12.94
9.37
5.84
2.64
0.00
-2.01
-3.62
-5.27
-7.47
-10.67
-15.06
-20.48
-26.36
-31.84
-35.82
-37.33
-35.69
-30.80
-23.20
-13.91
-4.25
4.56
11.55
16.22
18.47
18.61
17.18
14.79
12.08
9.56
7.62
6.52
6.37
7.13
8.56
10.29
11.86
12.87
13.06
12.33
10.71
8.33
5.33
1.84
-1.96
-5.87
-9.61
-12.92
-15.70
-18.02
-20.18
-22.63
-25.82
-29.88
-34.55
-39.01
-42.12
-42.69
-39.87
-33.48
-24.13
-13.03
-1.72
8.36
16.23
21.47
24.26
25.15
24.78
23.71
22.31
20.86
19.55
18.63
18.34
18.77
19.79
21.04
22.06
22.44
21.93
20.47
18.15
15.14
11.67
7.99
4.37
1.08
-1.68
-3.84
-5.48
-6.87
-8.47
-10.89
-14.68
-20.14
-26.94
-34.06
-39.95
-42.91
-41.74
-36.12
-26.80
-15.30
-3.48
7.03
15.23
20.79
23.95
25.24
25.24
24.34
22.81
20.84
18.61
16.32
14.14
12.13
10.21
8.24
6.12
3.93
1.82
-0.02
-1.57
-2.99
-4.50
-6.28
-8.31
-10.44
-12.45
-14.21
-15.78
-17.34
-19.19
-21.67
-25.03
-29.26
-33.97
-38.29
-41.06
-41.09
-37.61
-30.67
-21.08
-10.22
0.43
9.71
16.96
21.97
24.82
25.69
24.86
22.69
19.68
16.46
13.62
11.64
10.70
10.70
11.30
12.05
12.53
12.41
11.52
9.88
7.58
4.83
1.84
-1.20
-4.13
-6.83
-9.26
-11.49
-13.66
-16.12
-19.30
-23.55
-28.92
-34.89
-40.40
-44.00
-44.38
-40.77
-33.33
-23.11
-11.75
-0.91
8.15
14.84
19.25
21.83
23.13
23.62
23.60
23.32
23.14
23.43
24.56
26.62
29.33
32.10
34.18
35.00
34.33
32.28
29.21
25.52
21.56
17.57
13.76
10.33
7.40
4.94
2.72
0.25
-3.06
-7.70
-13.81
-20.99
-28.24
-34.12
-37.16
-36.33
-31.46
-23.36
-13.63
-4.13
3.65
8.93
11.75
12.62
12.10
10.56
8.09
4.75
0.82
-3.13
-6.37
-8.32
-8.83
-8.32
-7.53
-7.25
-7.98
-9.84
-12.57
-15.77
-19.06
-22.19
-25.08
-27.77
-30.30
-32.70
-35.05
-37.45
-40.08
-43.08
-46.38
-49.50
-51.48
-51.15
-47.46
-39.99
-29.20
-16.41
-3.37
8.21
17.20
23.22
26.57
27.83
27.56
26.12
23.72
20.66
17.43
14.73
13.27
13.44
15.14
17.78
20.47
22.39
23.07
22.49
20.92
18.72
16.20
13.47
10.56
7.46
4.11
0.45
-3.68
-8.59
-14.52
-21.44
-28.83
-35.57
-40.19
-41.28
-38.05
-30.72
-20.42
-8.92
1.99
10.95
17.37
21.27
23.06
23.24
22.12
19.95
16.96
13.60
10.48
8.24
7.34
7.76
9.07
10.47
11.16
10.63
8.77
5.91
2.55
-0.89
-4.18
-7.34
-10.52
-13.87
-17.48
-21.43
-25.83
-30.79
-36.25
-41.84
-46.71
-49.68
-49.52
-45.47
-37.59
-26.89
-15.03
-3.76
5.57
12.39
16.85
19.48
20.83
21.21
20.70
19.35
17.46
15.59
14.43
14.45
15.70
17.69
19.61
20.63
20.21
18.22
14.93
10.84
6.46
2.19
-1.76
-5.34
-8.56
-11.53
-14.45
-17.67
-21.56
-26.35
-31.80
-37.03
-40.65
-41.21
-37.73
-30.22
-19.75
-8.09
2.92
11.97
18.54
22.85
25.43
26.81
27.27
26.86
25.69
24.01
22.32
21.29
21.41
22.81
25.15
27.68
29.57
30.18
29.25
26.93
23.63
19.85
15.93
12.10
8.39
4.80
1.23
-2.49
-6.59
-11.33
-16.83
-22.83
-28.55
-32.81
-34.30
-32.06
-25.88
-16.39
-4.92
7.00
17.96
27.06
33.89
38.38
40.68
41.00
39.69
37.14
33.91
30.57
27.69
25.71
24.85
25.06
25.94
26.87
27.08
25.92
22.99
18.31
12.18
5.14
-2.26
-9.50
-16.23
-22.24
-27.43
-31.89
-35.82
-39.57
-43.46
-47.62
-51.82
-55.32
-57.06
-55.88
-50.94
-42.20
-30.44
-17.17
-4.18
7.03
15.63
21.49
25.02
26.77
27.25
26.80
25.75
24.52
23.60
23.42
24.13
25.51
27.06
28.23
28.68
28.24
26.96
24.90
22.09
18.53
14.32
9.79
5.36
1.45
-1.76
-4.40
-6.89
-9.74
-13.39
-18.08
-23.62
-29.43
-34.53
-37.67
-37.65
-33.81
-26.22
-15.81
-4.18
7.04
16.52
23.66
28.44
31.26
32.56
32.65
31.84
30.42
28.86
27.69
27.29
27.78
28.83
29.85
30.29
29.86
28.56
26.66
24.37
21.76
18.73
15.19
11.20
7.02
2.99
-0.68
-4.00
-7.30
-11.04
-15.69
-21.57
-28.64
-36.53
-44.39
-51.02
-55.02
-55.27
-51.25
-43.31
-32.67
-20.97
-9.84
-0.41
6.85
11.98
15.28
17.14
17.85
17.70
17.05
16.32
15.95
16.22
17.13
18.47
19.86
20.97
21.57
21.60
21.08
20.09
18.71
17.00
15.12
13.23
11.59
10.41
9.86
9.92
10.31
10.59
10.16
8.53
5.50
1.28
-3.42
-7.61
-10.25
-10.68
-8.73
-4.85
0.10
5.12
9.38
12.38
13.96
14.21
13.30
11.40
8.67
5.26
1.45
-2.42
-5.99
-8.98
-11.16
-12.49
-13.02
-12.90
-12.34
-11.51
-10.59
-9.68
-8.89
-8.27
-7.91
-7.82
-7.97
-8.30
-8.73
-9.21
-9.79
-10.70
-12.22
-14.79
-18.66
-23.82
-29.73
-35.32
-39.19
-39.99
-37.00
-30.38
-21.27
-11.31
-2.12
5.26
10.59
14.20
16.70
18.55
19.95
20.93
21.50
21.90
22.44
23.49
25.14
27.17
29.13
30.48
30.81
30.00
28.15
25.49
22.27
18.63
14.61
10.24
5.61
0.88
-3.66
-7.76
-11.30
-14.45
-17.68
-21.61
-26.71
-32.95
-39.58
-45.26
-48.43
-47.91
-43.34
-35.32
-25.16
-14.43
-4.45
4.03
10.71
15.63
18.96
20.84
21.52
21.27
20.59
19.98
19.91
20.53
21.70
22.99
24.00
24.50
24.64
24.77
25.14
25.66
25.83
24.92
22.48
18.51
13.61
8.64
4.32
0.87
-2.03
-4.95
-8.51
-13.05
-18.61
-24.92
-31.45
-37.43
-41.92
-44.01
-43.05
-39.01
-32.46
-24.50
-16.38
-9.19
-3.56
0.39
2.89
4.39
5.28
5.93
6.61
7.55
8.95
10.91
13.36
16.09
18.74
20.96
22.54
23.43
23.63
23.16
21.97
19.94
17.05
13.47
9.59
5.89
2.70
0.13
-2.01
-4.04
-6.36
-9.33
-13.15
-17.88
-23.15
-28.18
-31.85
-32.91
-30.52
-24.55
-15.77
-5.55
4.49
13.05
19.44
23.54
25.65
26.21
25.65
24.33
22.53
20.50
18.49
16.71
15.37
14.67
14.68
15.27
16.10
16.65
16.41
15.04
12.55
9.22
5.48
1.72
-1.80
-5.02
-7.95
-10.69
-13.41
-16.33
-19.79
-24.10
-29.46
-35.75
-42.35
-48.24
-52.10
-52.76
-49.53
-42.58
-32.84
-21.88
-11.30
-2.36
4.29
8.69
11.19
12.19
11.93
10.55
8.25
5.52
3.08
1.69
1.86
3.54
6.18
8.95
11.05
12.02
11.82
10.71
9.06
7.11
4.97
2.62
0.05
-2.69
-5.52
-8.41
-11.45
-14.92
-19.14
-24.34
-30.39
-36.60
-41.85
-44.78
-44.33
-40.04
-32.38
-22.59
-12.35
-3.20
3.85
8.51
11.12
12.27
12.58
12.36
11.73
10.72
9.47
8.31
7.63
7.74
8.66
10.10
11.53
12.40
12.35
11.26
9.26
6.60
3.56
0.34
-2.90
-6.11
-9.28
-12.41
-15.54
-18.80
-22.44
-26.75
-31.93
-37.81
-43.71
-48.36
-50.28
-48.26
-41.86
-31.69
-19.31
-6.65
4.53
13.22
19.19
22.85
24.83
25.69
25.74
25.11
23.93
22.40
20.83
19.54
18.79
18.62
18.84
19.12
19.02
18.21
16.55
14.10
11.06
7.70
4.27
0.94
-2.17
-5.00
-7.55
-9.92
-12.36
-15.30
-19.18
-24.22
-30.18
-36.18
-40.83
-42.59
-40.38
-33.96
-24.17
-12.68
-1.45
7.96
14.76
19.08
21.59
23.06
23.93
24.20
23.70
22.36
20.46
18.62
17.45
17.33
18.10
19.20
19.98
19.93
18.86
16.89
14.24
11.05
7.45
3.50
-0.63
-4.64
-8.20
-11.11
-13.47
-15.68
-18.38
-22.13
-27.08
-32.75
-38.00
-41.31
-41.23
-36.99
-28.69
-17.42
-4.84
7.25
17.41
24.83
29.31
31.10
30.65
28.47
25.05
20.83
16.24
11.72
7.72
4.58
2.50
1.49
1.31
1.60
1.89
1.81
1.09
-0.37
-2.57
-5.33
-8.38
-11.31
-13.73
-15.40
-16.42
-17.28
-18.79
-21.70
-26.27
-31.99
-37.51
-41.02
-40.97
-36.57
-28.23
-17.38
-5.94
4.42
12.75
19.04
23.91
28.15
32.31
36.47
40.29
43.19
44.56
44.00
41.51
37.63
33.32
29.72
27.73
27.69
29.27
31.59
33.71
34.87
34.71
33.12
30.17
25.93
20.53
14.18
7.20
-0.15
-7.79
-15.83
-24.51
-33.83
-43.33
-52.01
-58.47
-61.34
-59.67
-53.36
-43.12
-30.41
-16.98
-4.51
5.73
13.03
17.18
18.44
17.24
14.13
9.78
4.91
0.37
-3.04
-4.72
-4.52
-2.81
-0.36
1.97
3.55
4.18
4.05
3.47
2.66
1.56
-0.03
-2.24
-4.98
-7.88
-10.51
-12.61
-14.28
-15.76
-17.23
-18.40
-18.49
-16.41
-11.32
-3.13
7.39
18.76
29.39
38.13
44.48
48.49
50.45
50.50
48.66
44.96
39.72
33.69
27.85
23.19
20.37
19.51
20.36
22.34
24.82
27.17
28.80
29.12
27.54
23.60
17.20
8.75
-0.75
-9.93
-17.43
-22.44
-24.98
-25.98
-26.80
-28.57
-31.64
-35.38
-38.47
-39.50
-37.63
-32.89
-26.15
-18.69
-11.70
-5.86
-1.33
2.03
4.40
5.63
5.42
3.42
-0.35
-5.36
-10.62
-15.07
-17.96
-19.09
-18.83
-17.81
-16.53
-15.23
-13.94
-12.62
-11.34
-10.35
-9.91
-10.20
-11.24
-12.95
-15.25
-18.13
-21.69
-26.00
-30.97
-36.20
-40.95
-44.22
-45.01
-42.61
-36.90
-28.46
-18.48
-8.38
0.59
7.73
12.90
16.42
18.72
20.15
20.90
21.03
20.62
19.89
19.23
19.02
19.53
20.73
22.28
23.64
24.28
23.84
22.25
19.70
16.44
12.77
8.88
4.91
1.04
-2.56
-5.86
-9.06
-12.59
-16.98
-22.45
-28.62
-34.40
-38.31
-38.94
-35.54
-28.37
-18.54
-7.70
2.59
11.27
17.95
22.75
26.01
28.05
29.05
29.14
28.51
27.47
26.41
25.68
25.45
25.68
26.18
26.65
26.87
26.67
25.95
24.68
22.82
20.40
17.45
14.05
10.31
6.42
2.56
-1.13
-4.68
-8.41
-12.82
-18.46
-25.46
-33.27
-40.61
-45.69
-46.94
-43.54
-35.89
-25.42
-14.10
-3.74
4.51
10.26
13.72
15.28
15.33
14.17
12.13
9.61
7.05
4.76
2.77
1.00
-0.42
-0.93
0.54
5.02
12.83
23.14
34.01
43.08
48.45
49.33
46.13
40.03
32.32
24.00
15.70
7.81
0.62
-5.68
-11.23
-16.43
-21.71
-27.12
-32.09
-35.45
-35.94
-32.72
-25.79
-16.09
-5.21
5.13
13.53
19.22
22.05
22.28
20.37
16.86
12.35
7.56
3.35
0.54
-0.27
0.98
3.83
7.31
10.37
12.14
12.22
10.73
8.11
4.93
1.65
-1.42
-4.21
-6.69
-8.90
-10.90
-12.83
-15.05
-18.01
-22.23
-27.89
-34.61
-41.39
-46.87
-49.73
-49.13
-45.13
-38.53
-30.66
-22.92
-16.37
-11.53
-8.37
-6.49
-5.37
-4.61
-3.99
-3.54
-3.32
-3.31
-3.31
-2.98
-2.06
-0.53
1.28
2.86
3.64
3.24
1.52
-1.45
-5.50
-10.37
-15.66
-20.94
-25.71
-29.61
-32.59
-34.88
-36.89
-38.88
-40.83
-42.35
-42.82
-41.65
-38.34
-32.71
-24.81
-15.09
-4.29
6.59
16.53
24.77
31.03
35.51
38.71
41.18
43.23
44.96
46.33
47.37
48.31
49.46
51.10
53.20
55.45
57.30
58.20
57.79
55.99
52.99
49.10
44.70
40.04
35.30
30.54
25.66
20.53
14.96
8.80
1.94
-5.54
-13.31
-20.66
-26.63
-30.09
-30.19
-26.61
-19.79
-10.90
-1.47
7.01
13.45
17.45
19.16
19.10
17.90
16.14
14.19
12.33
10.72
9.54
8.94
9.03
9.78
10.96
12.14
12.83
12.63
11.33
9.07
6.17
3.02
-0.07
-3.00
-5.87
-8.88
-12.25
-16.18
-20.76
-26.03
-31.84
-37.71
-42.80
-46.00
-46.21
-42.73
-35.54
-25.49
-14.01
-2.79
6.69
13.53
17.46
18.80
18.19
16.34
13.89
11.29
8.88
6.96
5.75
5.45
6.07
7.44
9.15
10.67
11.58
11.64
10.91
9.60
7.90
5.95
3.68
0.94
-2.35
-6.22
-10.61
-15.46
-20.68
-26.16
-31.59
-36.38
-39.59
-40.16
-37.18
-30.19
-19.37
-5.57
9.77
24.97
38.37
48.58
54.81
56.93
55.43
51.19
45.32
38.78
32.34
26.53
21.61
17.72
14.75
12.40
10.15
7.42
3.71
-1.16
-6.95
-13.06
-18.75
-23.44
-26.92
-29.42
-31.50
-33.78
-36.70
-40.31
-44.26
-47.83
-50.15
-50.37
-47.83
-42.32
-34.07
-23.84
-12.77
-2.17
6.88
13.65
17.94
19.92
19.90
18.27
15.36
11.60
7.58
4.02
1.60
0.73
1.31
2.76
4.14
4.56
3.58
1.29
-1.76
-4.85
-7.48
-9.52
-11.23
-13.04
-15.37
-18.46
-22.39
-27.07
-32.22
-37.30
-41.47
-43.65
-42.85
-38.48
-30.71
-20.49
-9.28
1.39
10.34
17.02
21.36
23.66
24.26
23.45
21.47
18.70
15.69
13.11
11.63
11.55
12.74
14.58
16.26
17.04
16.55
14.82
12.20
9.17
6.07
3.04
0.01
-3.18
-6.72
-10.74
-15.34
-20.50
-26.07
-31.61
-36.41
-39.52
-39.93
-36.96
-30.49
-21.18
-10.31
0.54
9.98
17.11
21.78
24.30
25.27
25.16
24.26
22.67
20.51
18.07
15.82
14.26
13.67
13.95
14.60
14.99
14.59
13.15
10.82
7.97
5.03
2.24
-0.38
-3.03
-5.99
-9.50
-13.75
-18.77
-24.45
-30.49
-36.35
-41.19
-44.01
-43.86
-40.17
-33.00
-23.14
-11.92
-0.83
8.87
16.38
21.47
24.26
25.11
24.39
22.58
20.15
17.68
15.75
14.85
15.25
16.89
19.34
21.92
23.87
24.55
23.75
21.62
18.62
15.33
12.15
9.29
6.67
4.12
1.36
-1.85
-5.76
-10.56
-16.16
-22.16
-27.65
-31.43
-32.32
-29.56
-23.16
-13.94
-3.29
7.28
16.46
23.51
28.15
30.53
30.99
29.91
27.69
24.74
21.57
18.71
16.71
15.97
16.61
18.40
20.83
23.21
24.89
25.45
24.73
22.80
19.91
16.36
12.52
8.70
5.11
1.77
-1.50
-5.18
-9.77
-15.65
-22.75
-30.43
-37.55
-42.69
-44.63
-42.67
-37.01
-28.57
-18.84
-9.37
-1.36
4.56
8.32
10.17
10.47
9.50
7.51
4.81
1.81
-0.90
-2.78
-3.48
-2.98
-1.65
-0.08
1.12
1.57
1.18
0.18
-1.15
-2.52
-3.83
-5.12
-6.50
-8.09
-10.02
-12.46
-15.64
-19.75
-24.64
-29.77
-34.05
-36.22
-35.29
-30.93
-23.69
-14.80
-5.71
2.40
8.89
13.57
16.55
17.87
17.55
15.64
12.41
8.52
4.91
2.58
2.24
4.08
7.67
12.14
16.42
19.56
20.96
20.49
18.40
15.14
11.25
7.22
3.40
-0.06
-3.20
-6.28
-9.78
-14.16
-19.75
-26.42
-33.48
-39.75
-43.78
-44.33
-40.78
-33.42
-23.38
-12.27
-1.71
7.13
13.73
18.15
20.72
21.84
21.73
20.52
18.36
15.61
12.84
10.66
9.65
10.03
11.58
13.72
15.68
16.81
16.73
15.51
13.43
10.90
8.21
5.46
2.64
-0.38
-3.69
-7.43
-11.79
-16.95
-22.92
-29.31
-35.25
-39.49
-40.74
-38.18
-31.79
-22.44
-11.63
-0.97
8.29
15.51
20.66
24.05
26.06
26.90
26.69
25.54
23.73
21.72
20.07
19.21
19.26
19.97
20.81
21.18
20.57
18.76
15.87
12.24
8.36
4.63
1.27
-1.67
-4.31
-6.85
-9.51
-12.54
-16.21
-20.76
-26.30
-32.48
-38.43
-42.85
-44.29
-41.72
-34.97
-24.87
-12.99
-1.14
9.22
17.29
22.98
26.63
28.70
29.54
29.37
28.35
26.73
24.91
23.35
22.44
22.35
22.91
23.70
24.18
23.90
22.69
20.66
18.06
15.12
11.97
8.61
5.05
1.40
-2.17
-5.47
-8.47
-11.37
-14.58
-18.49
-23.29
-28.69
-33.87
-37.65
-38.74
-36.25
-29.96
-20.54
-9.32
2.12
12.37
20.60
26.54
30.38
32.42
32.94
32.20
30.50
28.31
26.21
24.78
24.35
24.94
26.19
27.55
28.49
28.67
28.03
26.68
24.80
22.43
19.52
15.94
11.71
7.06
2.42
-1.70
-5.07
-7.79
-10.39
-13.61
-18.02
-23.78
-30.38
-36.79
-41.62
-43.56
-41.80
-36.25
-27.67
-17.41
-7.05
2.03
8.99
13.61
16.07
16.77
16.12
14.45
12.10
9.51
7.24
5.80
5.51
6.31
7.82
9.48
10.79
11.49
11.56
11.11
10.21
8.80
6.75
3.93
0.45
-3.42
-7.25
-10.72
-13.72
-16.51
-19.58
-23.52
-28.70
-34.96
-41.56
-47.21
-50.44
-50.08
-45.62
-37.52
-26.97
-15.57
-4.82
4.20
10.97
15.40
17.75
18.44
17.96
16.93
15.85
15.18
15.11
15.67
16.73
18.07
19.51
20.86
21.98
22.74
23.04
22.86
22.26
21.41
20.63
20.34
20.96
22.89
26.18
30.51
35.09
38.79
40.34
38.73
33.50
24.96
14.33
3.44
-5.51
-10.63
-10.81
-6.13
2.13
11.95
21.26
28.55
33.26
35.69
36.57
36.62
36.24
35.57
34.75
34.13
34.27
35.64
38.28
41.49
44.01
44.36
41.41
34.79
24.80
12.30
-1.71
-16.35
-30.90
-44.75
-57.26
-67.92
-76.46
-83.09
-88.49
-93.56
-99.00
-105.00
-110.99
-115.82
-118.10
-116.59
-110.54
-99.83
-84.93
-66.82
-46.84
-26.51
-7.31
9.48
23.06
33.11
39.84
43.81
45.75
46.38
46.25
45.72
44.96
44.02
42.94
41.69
40.26
38.58
36.47
33.65
29.92
25.16
19.51
13.28
6.92
0.84
-4.68
-9.57
-13.95
-18.15
-22.55
-27.48
-32.99
-38.76
-44.00
-47.58
-48.30
-45.27
-38.31
-28.08
-16.02
-3.86
6.80
14.94
20.29
23.16
24.08
23.50
21.69
18.77
14.95
10.70
6.68
3.59
1.85
1.52
2.24
3.47
4.68
5.51
5.76
5.38
4.34
2.68
0.48
-2.13
-5.04
-8.27
-12.04
-16.71
-22.58
-29.65
-37.39
-44.67
-50.13
-52.50
-51.12
-46.09
-38.24
-28.80
-19.02
-9.87
-2.03
4.07
8.12
9.92
9.50
7.20
3.72
0.01
-3.07
-4.91
-5.35
-4.67
-3.38
-2.17
-1.62
-2.10
-3.66
-6.08
-8.91
-11.73
-14.30
-16.65
-19.06
-21.92
-25.61
-30.31
-35.96
-42.13
-48.01
-52.54
-54.54
-53.16
-48.07
-39.73
-29.18
-17.80
-6.90
2.57
10.05
15.34
18.36
19.17
17.91
15.01
11.19
7.39
4.59
3.49
4.31
6.67
9.73
12.48
14.05
13.98
12.30
9.49
6.18
2.92
-0.02
-2.75
-5.69
-9.36
-14.14
-20.07
-26.69
-33.09
-38.11
-40.59
-39.67
-35.03
-26.98
-16.36
-4.34
7.85
19.12
28.73
36.26
41.55
44.63
45.68
45.01
43.06
40.40
37.60
35.18
33.41
32.30
31.53
30.56
28.79
25.68
21.01
14.92
7.90
0.68
-6.11
-12.11
-17.38
-22.29
-27.39
-33.13
-39.65
-46.62
-53.21
-58.25
-60.47
-58.83
-52.89
-43.06
-30.52
-16.96
-4.02
7.13
15.93
22.34
26.56
28.72
28.89
27.24
24.29
20.98
18.43
17.53
18.50
20.81
23.43
25.34
25.97
25.37
23.99
22.35
20.65
18.70
16.02
12.23
7.17
0.92
-6.22
-14.02
-22.16
-30.21
-37.40
-42.58
-44.54
-42.36
-35.91
-26.07
-14.42
-2.78
7.46
15.62
21.71
26.10
29.10
30.69
30.74
29.25
26.62
23.66
21.28
20.15
20.35
21.43
22.57
23.00
22.20
20.06
16.79
12.77
8.40
3.98
-0.34
-4.54
-8.76
-13.17
-18.03
-23.47
-29.53
-35.97
-42.25
-47.46
-50.49
-50.24
-45.90
-37.28
-24.94
-10.16
5.41
20.08
32.59
42.27
49.11
53.61
56.47
58.45
60.05
61.55
62.94
64.08
64.76
64.81
64.17
62.81
60.76
58.05
54.68
50.70
46.18
41.29
36.27
31.35
26.67
22.30
18.18
14.16
10.03
5.52
0.33
-5.82
-13.06
-21.19
-29.61
-37.33
-43.23
-46.34
-46.32
-43.49
-38.84
-33.63
-29.04
-25.82
-24.07
-23.46
-23.35
-23.20
-22.69
-21.80
-20.65
-19.33
-17.72
-15.57
-12.62
-8.74
-4.12
0.80
5.40
9.07
11.40
12.20
11.55
9.63
6.79
3.28
-0.70
-5.08
-9.91
-15.27
-21.28
-28.03
-35.62
-43.86
-52.26
-59.86
-65.29
-67.13
-64.35
-56.77
-45.24
-31.42
-17.23
-4.22
6.84
16.00
23.78
30.81
37.44
43.78
49.69
55.04
59.80
63.94
67.42
70.12
71.87
72.58
72.21
70.85
68.59
65.51
61.68
57.20
52.15
46.62
40.58
33.93
26.58
18.42
9.41
-0.59
-11.78
-24.44
-38.62
-53.86
-69.04
-82.50
-92.47
-97.61
-97.44
-92.38
-83.59
-72.42
-60.08
-47.39
-34.75
-22.33
-10.18
1.49
12.41
22.19
30.55
37.40
42.91
47.48
51.50
55.20
58.48
61.03
62.44
62.39
60.78
57.66
53.18
47.44
40.47
32.33
23.17
13.29
3.19
-6.62
-15.77
-24.17
-32.04
-39.80
-47.72
-55.66
-62.85
-68.04
-69.89
-67.47
-60.73
-50.53
-38.34
-25.76
-14.02
-3.78
4.82
11.91
17.59
21.88
24.76
26.32
26.87
26.94
27.09
27.72
28.94
30.49
31.98
32.98
33.28
32.88
31.89
30.44
28.50
25.93
22.64
18.62
14.07
9.37
4.91
0.92
-2.59
-5.91
-9.47
-13.78
-19.19
-25.71
-32.88
-39.71
-44.87
-47.01
-45.26
-39.47
-30.43
-19.53
-8.37
1.75
10.06
16.41
21.03
24.24
26.27
27.30
27.51
27.28
27.09
27.43
28.58
30.49
32.75
34.76
35.98
36.07
35.03
33.04
30.34
27.09
23.29
18.85
13.72
8.01
1.97
-4.02
-9.67
-14.80
-19.44
-23.76
-28.00
-32.41
-37.16
-42.27
-47.48
-52.11
-55.15
-55.43
-52.11
-44.98
-34.78
-22.90
-11.03
-0.54
7.85
13.99
18.12
20.43
21.01
19.89
17.29
13.74
10.02
6.84
4.58
3.13
1.98
0.59
-1.37
-3.87
-6.56
-9.07
-11.15
-12.89
-14.58
-16.60
-19.17
-22.21
-25.38
-28.19
-30.29
-31.57
-32.29
-33.05
-34.60
-37.53
-41.95
-47.28
-52.24
-55.28
-55.02
-50.92
-43.45
-33.88
-23.84
-14.67
-7.24
-1.91
1.15
1.82
-0.05
-4.38
-10.62
-17.79
-24.60
-29.82
-32.59
-32.62
-30.20
-26.06
-21.24
-16.85
-13.93
-13.15
-14.66
-17.82
-21.33
-23.50
-22.83
-18.55
-10.83
-0.70
10.50
21.66
32.21
41.96
50.80
58.38
64.24
68.21
70.80
73.16
76.51
81.45
87.47
93.22
97.26
98.88
98.43
96.98
95.58
94.57
93.63
92.15
89.91
87.38
85.51
85.16
86.50
88.98
91.54
93.15
93.22
91.59
88.46
83.95
78.07
70.66
61.63
51.09
39.45
27.30
15.17
3.28
-8.69
-21.45
-35.87
-52.44
-70.94
-90.27
-108.68
-124.24
-135.24
-140.64
-140.15
-134.24
-123.96
-110.72
-96.04
-81.25
-67.33
-54.84
-44.08
-35.19
-28.32
-23.59
-20.96
-20.09
-20.36
-20.98
-21.23
-20.66
-19.07
-16.53
-13.29
-9.66
-6.08
-2.98
-0.73
0.43
0.54
-0.21
-1.41
-2.74
-3.94
-5.02
-6.21
-8.00
-11.00
-15.69
-22.18
-29.87
-37.48
-43.27
-45.62
-43.58
-37.23
-27.72
-16.76
-6.15
2.86
9.66
14.23
16.78
17.57
16.82
14.74
11.73
8.30
5.07
2.57
1.14
0.82
1.38
2.35
3.09
3.02
1.69
-0.95
-4.62
-8.71
-12.63
-15.99
-18.74
-21.15
-23.61
-26.50
-30.03
-34.34
-39.36
-44.84
-50.18
-54.37
-56.20
-54.58
-49.00
-39.81
-28.17
-15.77
-4.20
5.45
12.79
17.98
21.43
23.42
24.07
23.43
21.66
19.21
16.71
14.91
14.30
15.04
16.81
18.98
20.80
21.64
21.18
19.40
16.62
13.25
9.68
6.10
2.50
-1.24
-5.31
-9.88
-15.10
-21.07
-27.71
-34.60
-40.87
-45.22
-46.26
-43.10
-35.69
-25.05
-12.88
-1.06
8.98
16.61
21.87
25.28
27.36
28.51
28.91
28.69
28.08
27.36
26.91
26.93
27.48
28.34
29.15
29.46
28.93
27.40
24.95
21.89
18.53
15.18
11.93
8.75
5.45
1.77
-2.58
-7.84
-14.15
-21.45
-29.24
-36.57
-42.14
-44.62
-43.11
-37.54
-28.72
-18.14
-7.44
2.06
9.66
15.29
19.27
21.95
23.53
24.03
23.44
21.88
19.76
17.67
16.11
15.38
15.39
15.77
16.02
15.70
14.57
12.64
10.12
7.29
4.42
1.70
-0.85
-3.33
-5.93
-8.83
-12.24
-16.27
-21.00
-26.37
-32.07
-37.37
-41.14
-42.09
-39.19
-32.16
-21.67
-9.27
3.14
13.92
22.14
27.66
30.90
32.49
32.88
32.34
30.98
29.00
26.77
24.76
23.45
23.08
23.61
24.66
25.70
26.23
25.85
24.44
22.00
18.74
14.88
10.70
6.43
2.30
-1.59
-5.21
-8.75
-12.49
-16.85
-22.12
-28.28
-34.80
-40.59
-44.21
-44.36
-40.33
-32.40
-21.80
-10.36
0.08
8.21
13.56
16.38
17.27
16.82
15.39
13.12
10.16
6.90
3.96
2.06
1.66
2.72
4.66
6.56
7.58
7.27
5.71
3.34
0.68
-1.91
-4.40
-6.90
-9.56
-12.36
-15.21
-18.04
-20.97
-24.32
-28.40
-33.23
-38.26
-42.33
-43.97
-41.97
-35.85
-26.18
-14.48
-2.60
7.83
15.90
21.53
25.12
27.17
28.02
27.75
26.42
24.31
21.93
19.89
18.67
18.37
18.74
19.27
19.45
18.89
17.40
14.97
11.70
7.84
3.66
-0.51
-4.40
-7.87
-10.92
-13.66
-16.36
-19.33
-22.87
-27.16
-32.03
-36.82
-40.40
-41.44
-38.91
-32.45
-22.69
-11.06
0.68
11.02
19.05
24.59
27.98
29.71
30.17
29.60
28.18
26.14
23.85
21.75
20.24
19.56
19.72
20.51
21.48
22.13
22.02
20.88
18.69
15.63
12.03
8.17
4.25
0.35
-3.57
-7.57
-11.71
-16.15
-21.09
-26.73
-33.04
-39.54
-45.21
-48.70
-48.71
-44.56
-36.48
-25.66
-13.84
-2.71
6.57
13.57
18.44
21.60
23.40
24.05
23.64
22.34
20.43
18.31
16.36
14.84
13.86
13.28
12.87
12.25
10.95
8.60
4.99
0.23
-5.31
-11.12
-16.83
-22.28
-27.64
-33.21
-39.26
-45.95
-53.38
-61.65
-70.88
-81.08
-91.89
-102.45
-111.51
-117.73
-120.29
-119.12
-115.02
-109.28
-103.23
-97.87
-93.68
-90.76
-88.91
-87.81
-87.04
-86.17
-84.69
-82.12
-78.03
-72.05
-63.99
-53.88
-42.04
-28.90
-14.84
-0.14
14.94
29.83
43.28
53.46
58.41
56.83
48.93
36.77
24.01
14.88
12.87
19.41
33.32
51.30
69.22
83.95
94.44
101.84
108.53
116.54
126.47
137.23
146.82
153.39
155.99
154.63
149.92
142.69
133.62
123.20
111.47
97.93
81.60
61.51
37.61
11.56
-13.12
-31.77
-40.13
-35.72
-18.92
7.06
37.10
65.72
88.61
103.71
111.49
114.48
116.25
119.99
127.22
136.99
145.98
149.31
141.93
120.28
83.93
36.30
-15.85
-64.43
-102.75
-127.59
-140.08
-144.11
-143.73
-140.60
-133.11
-117.99
-93.15
-60.18
-24.50
7.05
30.27
46.24
60.68
80.38
108.16
139.93
165.43
172.79
154.41
111.46
53.99
-3.22
-47.00
-71.07
-77.45
-74.05
-69.57
-69.20
-73.17
-78.43
-82.03
-83.38
-84.38
-87.32
-92.53
-97.41
-97.67
-90.02
-74.46
-54.72
-36.40
-24.30
-20.01
-21.38
-23.86
-22.80
-15.65
-2.90
12.16
25.14
32.14
31.19
22.40
7.40
-11.30
-31.02
-48.74
-61.19
-64.87
-56.99
-36.46
-4.89
33.21
71.32
102.46
121.09
124.27
111.89
85.92
49.44
5.89
-41.23
-88.46
-132.69
-171.60
-204.17
-230.50
-251.07
-265.80
-273.40
-272.00
-260.27
-238.84
-210.47
-179.30
-149.39
-123.40
-102.31
-85.61
-71.97
-59.49
-46.01
-29.30
-7.83
18.58
48.35
78.71
107.15
132.95
157.95
185.78
219.96
261.58
307.97
353.11
389.62
411.58
416.48
405.73
383.32
353.56
319.29
281.37
239.66
194.27
146.49
98.32
51.72
8.13
-31.11
-63.96
-87.07
-96.97
-92.12
-74.94
-52.14
-32.54
-23.55
-28.09
-43.34
-62.42
-77.96
-85.60
-86.04
-84.66
-89.50
-108.20
-145.08
-199.04
-263.15
-326.28
-376.30
-403.84
-405.20
-382.96
-344.07
-296.74
-247.34
-198.99
-152.24
-106.35
-60.43
-13.98
33.36
81.80
130.80
178.33
220.79
254.01
275.21
284.32
284.28
279.72
274.95
272.12
270.78
268.56
262.43
250.13
231.00
206.24
178.62
151.64
128.57
111.34
100.20
93.68
89.39
84.87
78.09
67.83
53.67
35.74
14.76
-7.90
-30.20
-49.55
-63.37
-70.07
-69.89
-65.27
-60.14
-58.33
-61.77
-69.56
-78.19
-83.37
-82.21
-74.49
-62.62
-50.26
-40.45
-34.48
-31.98
-31.78
-32.88
-35.06
-38.48
-43.14
-48.66
-54.17
-58.66
-61.60
-63.03
-63.54
-64.02
-65.19
-67.50
-71.21
-76.60
-83.89
-93.05
-103.38
-113.55
-121.85
-126.81
-127.79
-125.19
-120.17
-114.20
-108.53
-103.96
-100.78
-98.94
-98.11
-97.67
-96.72
-94.19
-89.23
-81.70
-72.50
-63.38
-56.20
-51.90
-49.65
-46.79
-39.47
-23.88
2.80
41.80
92.67
153.16
218.76
282.43
335.10
367.65
373.85
353.22
311.81
260.48
210.88
171.41
144.99
129.39
119.85
111.68
101.82
88.58
70.74
47.05
16.82
-18.81
-56.40
-90.99
-118.23
-136.08
-145.30
-148.08
-146.09
-139.30
-126.52
-107.25
-83.19
-58.42
-37.74
-24.39
-18.42
-16.92
-15.69
-11.24
-2.29
10.27
24.31
37.78
49.57
59.69
68.84
77.76
86.80
96.11
106.33
118.99
136.35
160.32
190.90
225.08
257.09
280.05
288.38
279.82
255.84
220.67
179.53
136.93
95.99
58.53
25.49
-2.78
-26.52
-46.64
-64.61
-81.95
-99.68
-118.05
-136.33
-153.33
-168.03
-180.23
-191.01
-202.99
-219.99
-246.01
-283.15
-329.66
-379.00
-420.80
-443.87
-440.14
-407.44
-350.09
-276.79
-197.58
-121.23
-54.21
-0.84
36.20
56.05
60.15
52.43
38.61
24.33
13.63
8.62
10.67
21.76
44.08
78.41
121.60
165.46
198.45
209.46
191.53
143.74
70.15
-22.32
-125.92
-232.74
-334.42
-422.15
-488.06
-527.46
-540.69
-533.15
-512.99
-487.83
-462.34
-437.51
-411.96
-383.41
-350.29
-312.15
-269.51
-223.65
-176.26
-129.27
-84.36
-42.41
-3.44
33.45
69.54
105.77
142.16
177.82
211.15
240.75
266.08
287.90
308.31
330.49
357.98
393.61
438.14
489.12
540.72
584.90
613.89
622.90
611.88
585.32
550.17
512.94
477.51
444.62
412.93
380.84
347.76
314.04
280.27
246.26
210.84
172.33
129.54
82.17
30.85
-23.23
-78.59
-133.27
-184.63
-229.28
-264.00
-286.75
-297.70
-299.24
-294.98
-288.41
-281.61
-275.22
-268.84
-262.06
-254.80
-247.11
-238.69
-228.55
-215.31
-197.94
-176.51
-152.29
-127.43
-104.11
-83.83
-67.02
-53.12
-41.16
-30.17
-19.80
-10.21
-1.95
4.49
9.12
12.51
15.74
19.85
25.42
32.14
39.02
44.65
47.92
48.45
46.70
43.71
40.38
37.21
33.95
29.96
24.61
17.70
9.70
1.53
-5.55
-10.48
-12.51
-11.38
-7.32
-0.94
6.91
15.31
23.37
30.35
35.65
38.90
39.95
38.88
36.12
32.21
27.92
23.81
20.37
17.73
15.78
14.25
12.79
11.22
9.49
7.78
6.27
5.07
4.06
2.92
1.30
-1.13
-4.40
-8.50
-13.27
-18.62
-24.30
-29.86
-34.53
-37.31
-37.35
-34.19
-28.11
-19.99
-11.09
-2.66
4.49
9.94
13.70
15.85
16.47
15.52
13.05
9.35
5.08
1.26
-1.14
-1.53
-0.02
2.57
5.02
6.28
5.85
3.92
1.19
-1.70
-4.36
-6.87
-9.53
-12.63
-16.20
-20.03
-23.88
-27.46
-30.57
-32.81
-33.64
-32.38
-28.54
-22.10
-13.58
-4.09
5.17
13.13
19.16
23.06
24.89
24.88
23.29
20.54
17.13
13.81
11.26
10.05
10.29
11.62
13.36
14.69
15.05
14.17
12.20
9.48
6.44
3.43
0.61
-1.94
-4.39
-7.00
-10.21
-14.37
-19.58
-25.36
-30.69
-34.23
-34.73
-31.59
-25.03
-16.05
-6.03
3.72
12.29
19.25
24.43
27.83
29.41
29.20
27.40
24.48
21.15
18.19
16.22
15.48
15.80
16.65
17.41
17.55
16.83
15.36
13.34
11.09
8.68
6.03
2.92
-0.90
-5.56
-11.03
-17.11
-23.47
-29.61
-34.86
-38.40
-39.41
-37.32
-31.91
-23.62
-13.35
-2.41
7.89
16.45
22.61
26.21
27.46
26.83
24.84
22.10
19.07
16.31
14.24
13.13
13.05
13.64
14.42
14.76
14.29
12.95
11.03
8.99
7.14
5.61
4.16
2.44
0.07
-3.19
-7.44
-12.60
-18.35
-24.19
-29.30
-32.72
-33.46
-30.99
-25.34
-17.23
-7.86
1.58
10.06
17.06
22.29
25.67
27.21
26.97
25.25
22.55
19.55
16.84
14.85
13.68
13.22
13.29
13.64
14.09
14.42
14.43
13.87
12.57
10.50
7.72
4.50
1.14
-2.05
-5.00
-7.86
-11.04
-15.01
-20.01
-25.79
-31.44
-35.71
-37.27
-35.33
-29.89
-21.72
-12.09
-2.28
6.68
14.24
20.11
24.21
26.47
26.87
25.58
23.00
19.84
16.90
14.94
14.33
15.05
16.65
18.45
19.82
20.35
20.02
18.97
17.48
15.65
13.47
10.89
7.93
4.79
1.72
-1.08
-3.72
-6.57
-10.15
-14.79
-20.34
-26.08
-30.73
-33.06
-32.08
-27.65
-20.36
-11.35
-1.97
6.70
13.94
19.47
23.16
25.00
25.01
23.32
20.34
16.71
13.29
10.78
9.61
9.72
10.69
11.95
12.98
13.50
13.41
12.78
11.56
9.71
7.10
3.78
-0.07
-4.11
-7.98
-11.53
-14.80
-18.18
-22.13
-26.98
-32.71
-38.72
-44.00
-47.26
-47.54
-44.41
-38.28
-30.18
-21.39
-13.09
-5.97
-0.34
3.79
6.34
7.22
6.37
4.04
0.87
-2.17
-4.13
-4.40
-2.95
-0.34
2.62
5.12
6.65
7.12
6.65
5.55
4.06
2.38
0.60
-1.20
-3.01
-4.91
-7.09
-9.91
-13.63
-18.35
-23.70
-28.80
-32.46
-33.49
-31.18
-25.56
-17.44
-8.10
1.12
9.18
15.54
20.06
22.87
24.11
23.91
22.34
19.63
16.22
12.78
10.12
8.83
9.15
10.69
12.69
14.18
14.47
13.40
11.30
8.75
6.21
3.83
1.40
-1.40
-4.80
-8.83
-13.34
-18.20
-23.30
-28.52
-33.50
-37.62
-39.96
-39.60
-36.05
-29.37
-20.37
-10.29
-0.57
7.61
13.53
16.92
18.00
17.19
15.03
12.04
8.75
5.61
3.01
1.23
0.28
-0.01
-0.07
-0.35
-1.25
-2.92
-5.27
-8.03
-10.88
-13.64
-16.23
-18.84
-21.65
-24.87
-28.60
-32.89
-37.72
-42.86
-47.92
-52.19
-54.82
-55.03
-52.46
-47.35
-40.52
-33.09
-25.88
-19.11
-12.27
-4.71
3.89
13.11
21.99
29.53
35.19
39.15
41.80
43.34
43.30
40.80
35.25
26.96
17.45
8.82
2.84
0.04
-0.45
-0.44
-1.68
-5.04
-10.24
-16.18
-21.67
-26.05
-29.49
-32.69
-36.24
-40.07
-43.24
-44.42
-42.51
-37.34
-29.71
-21.11
-13.04
-6.39
-1.40
2.21
4.80
6.62
7.81
8.63
9.58
11.29
14.23
18.40
23.28
28.02
31.86
34.38
35.64
36.04
36.08
36.22
36.60
37.20
37.80
38.10
37.76
36.50
34.13
30.66
26.41
21.98
18.28
16.29
16.80
20.14
26.04
33.62
41.70
49.12
55.03
59.02
61.07
61.33
60.01
57.35
53.68
49.46
45.20
41.31
37.96
34.96
31.92
28.45
24.35
19.74
14.97
10.37
6.04
1.77
-2.88
-8.35
-14.76
-21.89
-29.21
-36.19
-42.39
-47.56
-51.50
-53.94
-54.59
-53.17
-49.67
-44.50
-38.44
-32.44
-27.31
-23.64
-21.63
-21.35
-22.76
-25.84
-30.40
-36.02
-42.08
-47.87
-52.89
-57.02
-60.55
-64.01
-67.91
-72.53
-77.90
-84.04
-91.18
-99.91
-111.07
-125.37
-142.79
-162.05
-180.44
-194.25
-199.80
-194.53
-177.94
-151.64
-118.66
-82.24
-44.87
-7.79
28.78
65.27
102.49
141.26
182.10
224.51
266.50
304.67
335.07
354.65
362.22
358.66
345.87
325.68
299.12
267.01
230.92
193.82
159.41
130.33
106.36
84.09
58.32
24.82
-17.31
-64.81
-111.60
-150.97
-177.86
-189.87
-186.93
-170.02
-140.10
-97.70
-43.76
19.20
86.22
150.21
203.52
240.08
257.06
255.33
238.49
211.29
178.19
142.83
108.08
76.42
49.92
29.74
15.68
6.07
-1.58
-9.45
-18.53
-28.49
-38.10
-46.01
-51.41
-54.27
-55.30
-55.67
-56.64
-59.17
-63.60
-69.52
-75.93
-81.60
-85.50
-87.17
-86.72
-84.79
-82.35
-80.38
-79.80
-81.25
-85.01
-90.77
-97.63
-104.26
-109.22
-111.43
-110.47
-106.69
-101.03
-94.59
-88.36
-82.95
-78.66
-75.49
-73.39
-72.30
-72.23
-73.33
-75.73
-79.43
-84.04
-88.71
-92.08
-92.66
-89.22
-81.29
-69.33
-54.56
-38.58
-22.82
-8.35
4.23
14.55
22.43
27.77
30.77
32.01
32.37
32.83
34.05
36.15
38.65
40.74
41.68
41.10
39.19
36.47
33.60
30.95
28.45
25.59
21.62
15.88
8.19
-0.91
-10.23
-18.13
-23.01
-23.79
-20.21
-12.89
-3.00
8.01
18.92
28.82
37.16
43.63
47.99
50.11
50.02
48.04
44.80
41.13
37.76
35.20
33.47
32.26
31.09
29.56
27.56
25.19
22.69
20.19
17.64
14.82
11.41
7.26
2.28
-3.32
-9.14
-14.51
-18.57
-20.42
-19.39
-15.28
-8.52
-0.12
8.65
16.64
23.10
27.72
30.55
31.79
31.66
30.37
28.19
25.57
23.01
20.96
19.69
19.09
18.80
18.26
17.06
15.00
12.23
9.10
5.96
3.05
0.30
-2.50
-5.76
-9.85
-14.96
-20.98
-27.34
-33.08
-36.95
-37.83
-35.04
-28.67
-19.52
-8.87
1.89
11.65
19.64
25.48
29.01
30.25
29.39
26.81
23.22
19.41
16.20
14.02
12.94
12.54
12.22
11.47
10.07
8.22
6.24
4.44
2.82
1.07
-1.29
-4.65
-9.23
-14.99
-21.63
-28.69
-35.35
-40.60
-43.26
-42.38
-37.61
-29.36
-18.74
-7.20
3.93
13.70
21.59
27.38
31.02
32.52
32.16
30.45
28.17
26.10
24.81
24.40
24.54
24.63
24.07
22.54
19.97
16.63
12.90
9.12
5.49
1.96
-1.72
-5.90
-10.90
-16.83
-23.42
-29.93
-35.26
-38.16
-37.66
-33.32
-25.50
-15.21
-3.90
6.99
16.40
23.68
28.67
31.41
32.05
30.79
27.97
24.16
20.17
16.88
14.88
14.30
14.66
15.11
14.79
13.27
10.66
7.53
4.53
2.04
-0.01
-2.15
-5.00
-9.08
-14.48
-20.90
-27.62
-33.58
-37.65
-38.77
-36.34
-30.37
-21.54
-11.09
-0.38
9.39
17.52
23.62
27.64
29.55
29.45
27.59
24.43
20.74
17.26
14.61
12.99
12.17
11.65
10.86
9.45
7.30
4.62
1.69
-1.20
-3.89
-6.42
-8.96
-11.79
-15.21
-19.41
-24.40
-29.89
-35.26
-39.51
-41.58
-40.56
-36.14
-28.72
-19.44
-9.74
-1.00
5.85
10.47
12.91
13.43
12.28
9.76
6.27
2.44
-0.92
-3.13
-3.83
-3.25
-2.05
-1.10
-1.08
-2.29
-4.54
-7.41
-10.45
-13.39
-16.23
-19.15
-22.45
-26.35
-30.88
-35.87
-40.84
-45.06
-47.64
-47.76
-44.94
-39.25
-31.37
-22.35
-13.39
-5.46
0.83
5.22
7.64
8.18
7.00
4.46
1.21
-1.91
-4.04
-4.63
-3.66
-1.65
0.53
2.09
2.56
1.95
0.66
-0.83
-2.24
-3.65
-5.44
-8.09
-11.97
-17.11
-23.14
-29.34
-34.70
-38.16
-38.82
-36.17
-30.29
-21.86
-12.05
-2.14
6.75
13.92
19.06
22.17
23.33
22.74
20.74
17.85
14.81
12.33
10.82
10.30
10.31
10.27
9.71
8.47
6.74
4.87
3.12
1.52
-0.13
-2.19
-4.99
-8.76
-13.58
-19.29
-25.51
-31.51
-36.32
-38.82
-38.19
-34.09
-26.94
-17.81
-8.12
0.86
8.27
13.81
17.59
19.82
20.68
20.26
18.71
16.42
13.97
12.03
11.06
11.11
11.77
12.40
12.37
11.37
9.47
7.01
4.39
1.77
-0.94
-4.05
-7.91
-12.72
-18.48
-24.89
-31.40
-37.13
-41.11
-42.37
-40.26
-34.69
-26.23
-16.01
-5.39
4.38
12.47
18.51
22.44
24.38
24.45
22.85
19.95
16.42
13.13
10.94
10.32
11.15
12.71
14.01
14.22
12.99
10.57
7.53
4.47
1.66
-1.00
-3.83
-7.23
-11.42
-16.50
-22.35
-28.67
-34.82
-39.81
-42.45
-41.69
-37.03
-28.80
-18.19
-6.81
3.72
12.30
18.51
22.50
24.65
25.35
24.83
23.21
20.77
18.00
15.59
14.23
14.27
15.56
17.46
19.05
19.49
18.30
15.56
11.74
7.52
3.48
-0.06
-3.15
-6.04
-9.07
-12.54
-16.55
-20.99
-25.42
-29.13
-31.14
-30.59
-26.94
-20.30
-11.49
-1.76
7.57
15.60
21.88
26.44
29.46
31.05
31.17
29.79
27.17
23.83
20.60
18.25
17.21
17.45
18.47
19.56
20.03
19.52
17.93
15.52
12.66
9.68
6.78
4.01
1.31
-1.50
-4.57
-8.12
-12.31
-17.17
-22.52
-27.83
-32.31
-34.95
-34.94
-31.81
-25.80
-17.70
-8.69
0.07
7.72
13.80
18.17
20.80
21.73
21.00
18.86
15.82
12.58
9.93
8.35
8.00
8.55
9.45
10.11
10.10
9.26
7.63
5.45
2.89
0.09
-2.88
-6.06
-9.40
-12.86
-16.39
-20.10
-24.15
-28.72
-33.70
-38.50
-42.06
-43.12
-40.83
-35.04
-26.60
-16.95
-7.63
0.22
6.13
10.12
12.47
13.34
12.79
10.84
7.76
4.13
0.76
-1.58
-2.41
-1.72
-0.00
2.04
3.68
4.48
4.33
3.38
1.97
0.31
-1.49
-3.55
-6.01
-8.98
-12.52
-16.60
-21.20
-26.19
-31.29
-35.89
-39.06
-39.79
-37.34
-31.56
-23.07
-13.11
-3.09
5.76
12.78
17.81
21.06
22.81
23.24
22.51
20.79
18.51
16.24
14.63
14.12
14.78
16.22
17.75
18.59
18.18
16.36
13.37
9.70
5.90
2.30
-0.96
-4.00
-7.05
-10.38
-14.27
-18.92
-24.30
-30.05
-35.32
-38.96
-39.77
-36.97
-30.58
-21.46
-11.04
-0.90
7.79
14.38
18.87
21.52
22.69
22.64
21.57
19.76
17.57
15.50
14.02
13.45
13.80
14.77
15.82
16.38
16.06
14.72
12.54
9.84
6.94
4.02
1.08
-2.06
-5.62
-9.79
-14.69
-20.32
-26.50
-32.75
-38.27
-41.98
-42.77
-39.97
-33.57
-24.42
-13.92
-3.58
5.42
12.55
17.81
21.49
23.88
25.07
25.01
23.74
21.58
19.13
17.11
16.13
16.40
17.65
19.22
20.35
20.40
19.13
16.66
13.46
9.99
6.63
3.49
0.43
-2.82
-6.53
-10.84
-15.82
-21.37
-27.25
-32.97
-37.74
-40.56
-40.42
-36.76
-29.64
-19.98
-9.20
1.17
9.97
16.64
21.20
24.04
25.55
26.02
25.57
24.36
22.61
20.73
19.15
18.24
18.16
18.70
19.48
19.94
19.63
18.27
15.88
12.69
9.06
5.39
1.88
-1.43
-4.72
-8.21
-12.11
-16.54
-21.41
-26.53
-31.47
-35.62
-38.19
-38.40
-35.71
-30.01
-21.83
-12.18
-2.38
6.44
13.49
18.50
21.63
23.21
23.65
23.23
22.22
20.90
19.64
18.81
18.73
19.49
20.90
22.58
23.99
24.69
24.38
22.99
20.63
17.48
13.81
9.83
5.81
1.98
-1.52
-4.67
-7.61
-10.67
-14.25
-18.60
-23.74
-29.19
-34.02
-37.05
-37.18
-33.79
-27.00
-17.68
-7.18
3.07
11.91
18.72
23.37
26.10
27.33
27.46
26.82
25.68
24.29
22.93
21.86
21.33
21.48
22.21
23.25
24.14
24.36
23.52
21.46
18.33
14.46
10.30
6.19
2.34
-1.18
-4.42
-7.42
-10.29
-13.22
-16.53
-20.52
-25.35
-30.69
-35.74
-39.27
-40.04
-37.26
-30.90
-21.81
-11.37
-1.20
7.39
13.58
17.17
18.40
17.77
15.93
13.46
10.94
8.81
7.44
6.98
7.40
8.48
9.83
11.02
11.59
11.24
9.82
7.43
4.36
1.01
-2.26
-5.30
-8.13
-10.99
-14.11
-17.62
-21.51
-25.67
-30.00
-34.40
-38.69
-42.40
-44.74
-44.72
-41.55
-35.06
-25.85
-15.25
-4.86
3.99
10.59
14.91
17.36
18.44
18.51
17.81
16.49
14.83
13.20
11.97
11.45
11.66
12.49
13.60
14.66
15.25
15.08
13.94
11.83
8.93
5.55
2.07
-1.24
-4.24
-7.04
-9.86
-12.99
-16.75
-21.30
-26.57
-32.10
-37.02
-40.17
-40.43
-37.11
-30.28
-20.79
-10.09
0.28
9.14
15.93
20.68
23.74
25.43
25.96
25.37
23.79
21.47
18.90
16.69
15.31
15.02
15.71
17.00
18.29
18.99
18.66
17.13
14.49
11.08
7.33
3.56
-0.07
-3.60
-7.14
-10.87
-14.94
-19.49
-24.62
-30.26
-36.07
-41.30
-44.89
-45.71
-43.04
-36.82
-27.79
-17.30
-6.83
2.40
9.72
14.98
18.44
20.44
21.30
21.30
20.71
19.84
18.98
18.37
18.13
18.24
18.58
18.99
19.31
19.33
18.87
17.72
15.73
12.88
9.38
5.55
1.75
-1.73
-4.87
-7.83
-10.92
-14.51
-18.83
-23.93
-29.57
-35.20
-39.96
-42.89
-43.05
-39.86
-33.34
-24.18
-13.61
-3.02
6.36
13.78
19.03
22.34
24.09
24.69
24.51
23.83
22.98
22.24
21.82
21.79
22.05
22.39
22.59
22.50
22.02
21.06
19.55
17.42
14.66
11.35
7.68
3.82
-0.07
-3.87
-7.46
-10.79
-13.85
-16.78
-19.94
-23.69
-28.24
-33.34
-38.19
-41.54
-42.15
-39.24
-32.81
-23.74
-13.38
-3.23
5.59
12.47
17.31
20.30
21.78
22.06
21.47
20.39
19.24
18.44
18.27
18.79
19.83
21.07
22.18
22.86
22.96
22.41
21.27
19.61
17.50
15.04
12.23
9.08
5.56
1.77
-2.10
-5.81
-9.14
-12.07
-14.85
-17.97
-21.90
-26.84
-32.49
-38.00
-42.14
-43.62
-41.61
-35.97
-27.39
-17.20
-6.91
2.21
9.43
14.61
17.99
19.92
20.67
20.43
19.40
17.91
16.42
15.46
15.32
16.03
17.30
18.67
19.72
20.20
20.11
19.55
18.68
17.49
15.89
13.68
10.75
7.16
3.17
-0.75
-4.23
-7.02
-9.22
-11.23
-13.66
-17.08
-21.77
-27.48
-33.41
-38.35
-41.00
-40.41
-36.23
-28.86
-19.32
-8.94
0.98
9.49
16.06
20.59
23.30
24.53
24.67
24.09
23.11
21.99
21.00
20.34
20.17
20.48
21.14
21.86
22.35
22.46
22.10
21.31
20.08
18.31
15.88
12.73
9.01
5.04
1.24
-2.11
-4.98
-7.61
-10.43
-13.88
-18.23
-23.43
-29.07
-34.30
-38.05
-39.24
-37.13
-31.68
-23.54
-14.03
-4.59
3.52
9.60
13.51
15.50
15.98
15.28
13.71
11.52
9.14
7.03
5.63
5.18
5.64
6.69
7.81
8.51
8.39
7.32
5.35
2.73
-0.20
-3.13
-5.82
-8.24
-10.47
-12.72
-15.21
-18.07
-21.42
-25.30
-29.66
-34.23
-38.48
-41.52
-42.39
-40.34
-35.20
-27.60
-18.71
-9.93
-2.33
3.53
7.67
10.31
11.65
11.73
10.52
8.16
5.11
2.09
-0.12
-1.02
-0.51
0.99
2.82
4.25
4.74
4.05
2.27
-0.31
-3.26
-6.20
-8.90
-11.31
-13.60
-16.12
-19.28
-23.38
-28.49
-34.26
-39.82
-44.00
-45.54
-43.61
-38.05
-29.54
-19.35
-8.93
0.51
8.27
14.12
18.12
20.38
20.94
19.89
17.50
14.37
11.31
9.17
8.43
9.10
10.65
12.24
13.08
12.67
11.01
8.44
5.48
2.53
-0.23
-2.90
-5.73
-8.99
-12.88
-17.51
-22.93
-28.96
-35.13
-40.55
-44.08
-44.61
-41.49
-34.84
-25.56
-15.04
-4.68
4.46
11.85
17.37
21.09
23.18
23.73
22.95
21.17
18.89
16.74
15.29
14.90
15.56
16.89
18.20
18.79
18.19
16.33
13.48
10.08
6.52
2.94
-0.71
-4.62
-8.97
-13.93
-19.56
-25.83
-32.47
-38.84
-43.93
-46.56
-45.79
-41.23
-33.30
-23.12
-12.12
-1.63
7.50
14.89
20.55
24.59
27.09
28.09
27.70
26.23
24.18
22.18
20.76
20.24
20.60
21.49
22.41
22.84
22.45
21.13
19.03
16.38
13.44
10.34
7.04
3.40
-0.77
-5.61
-11.13
-17.26
-23.74
-30.18
-35.89
-40.07
-41.77
-40.29
-35.39
-27.47
-17.55
-6.91
3.20
12.01
19.16
24.74
28.92
31.79
33.39
33.80
33.32
32.45
31.80
31.77
32.41
33.47
34.53
35.23
35.52
35.51
35.35
35.01
34.22
32.55
29.65
25.49
20.46
15.24
10.60
7.14
5.02
3.96
3.27
2.21
0.22
-2.81
-6.54
-10.34
-13.68
-16.30
-18.42
-20.55
-23.29
-27.11
-32.12
-38.04
-44.20
-49.56
-52.93
-53.20
-49.75
-42.69
-32.88
-21.67
-10.45
-0.25
8.44
15.56
21.23
25.54
28.47
30.03
30.46
30.17
29.76
29.72
30.32
31.53
33.00
34.32
35.09
35.12
34.37
33.00
31.16
28.90
26.18
22.88
18.96
14.53
9.93
5.56
1.75
-1.38
-4.05
-6.70
-9.88
-14.04
-19.42
-25.91
-33.04
-39.93
-45.43
-48.33
-47.68
-43.17
-35.19
-24.87
-13.67
-2.94
6.38
13.98
19.97
24.66
28.25
30.77
32.16
32.44
31.92
31.10
30.58
30.79
31.86
33.50
35.18
36.28
36.37
35.37
33.52
31.33
29.21
27.41
25.76
23.87
21.32
17.88
13.72
9.30
5.18
1.68
-1.23
-3.97
-7.10
-11.10
-16.22
-22.36
-29.20
-36.19
-42.66
-47.77
-50.61
-50.39
-46.70
-39.71
-30.20
-19.43
-8.74
0.73
8.36
13.98
17.74
19.98
20.99
21.06
20.51
19.75
19.24
19.39
20.41
22.13
24.13
25.77
26.50
26.05
24.50
22.23
19.73
17.30
15.00
12.63
9.83
6.46
2.57
-1.44
-5.12
-8.12
-10.36
-12.12
-13.79
-15.86
-18.66
-22.38
-27.03
-32.47
-38.32
-43.89
-48.20
-50.23
-49.19
-44.78
-37.39
-27.92
-17.51
-7.27
1.97
9.66
15.50
19.34
21.15
21.12
19.68
17.52
15.42
14.05
13.77
14.57
16.07
17.72
19.02
19.63
19.51
18.80
17.79
16.65
15.41
13.91
11.88
9.17
5.77
1.95
-1.93
-5.53
-8.66
-11.38
-13.95
-16.74
-20.13
-24.42
-29.76
-35.96
-42.39
-47.97
-51.37
-51.38
-47.40
-39.72
-29.47
-18.26
-7.62
1.45
8.64
14.11
18.25
21.23
23.08
23.73
23.30
22.18
20.99
20.34
20.55
21.54
22.85
23.92
24.29
23.76
22.45
20.69
18.81
16.97
15.10
12.94
10.19
6.72
2.64
-1.63
-5.63
-8.98
-11.63
-13.90
-16.36
-19.62
-24.08
-29.81
-36.37
-42.98
-48.54
-51.95
-52.27
-49.07
-42.52
-33.42
-23.00
-12.51
-3.02
4.90
11.06
15.57
18.63
20.43
21.14
20.99
20.36
19.67
19.32
19.55
20.32
21.32
22.18
22.57
22.39
21.75
20.82
19.70
18.34
16.50
13.96
10.59
6.53
2.11
-2.23
-6.11
-9.33
-12.00
-14.45
-17.09
-20.39
-24.62
-29.84
-35.74
-41.57
-46.26
-48.64
-47.78
-43.35
-35.80
-26.19
-15.90
-6.16
2.25
9.02
14.22
18.00
20.45
21.62
21.68
21.00
20.12
19.62
19.86
20.89
22.42
23.95
25.00
25.26
24.71
23.55
22.08
20.49
18.74
16.58
13.76
10.13
5.86
1.42
-2.70
-6.13
-8.86
-11.24
-13.84
-17.23
-21.77
-27.42
-33.72
-39.81
-44.58
-46.96
-46.17
-42.04
-34.99
-25.98
-16.21
-6.70
1.79
8.89
14.47
18.53
21.09
22.25
22.23
21.40
20.28
19.33
18.85
18.95
19.54
20.40
21.30
22.01
22.33
22.16
21.37
19.92
17.82
15.14
11.99
8.51
4.87
1.25
-2.19
-5.32
-8.15
-10.83
-13.71
-17.24
-21.78
-27.34
-33.46
-39.14
-43.09
-44.06
-41.39
-35.18
-26.34
-16.25
-6.28
2.49
9.54
14.75
18.18
19.99
20.30
19.38
17.59
15.49
13.67
12.52
12.16
12.44
13.04
13.64
14.02
14.05
13.66
12.81
11.43
9.48
6.96
3.98
0.68
-2.76
-6.13
-9.30
-12.22
-14.98
-17.82
-21.12
-25.21
-30.21
-35.81
-41.17
-45.13
-46.47
-44.38
-38.73
-30.18
-19.96
-9.50
-0.05
7.59
13.10
16.59
18.33
18.67
17.92
16.45
14.69
13.11
12.13
11.97
12.65
13.85
15.18
16.22
16.71
16.54
15.73
14.33
12.40
10.01
7.21
4.10
0.79
-2.60
-6.02
-9.46
-13.01
-16.90
-21.33
-26.42
-31.95
-37.19
-41.02
-42.19
-39.81
-33.76
-24.86
-14.60
-4.59
3.94
10.53
15.27
18.60
20.83
21.98
21.94
20.66
18.44
15.88
13.75
12.65
12.78
13.88
15.43
16.77
17.40
17.06
15.72
13.60
10.94
7.98
4.84
1.55
-1.93
-5.59
-9.41
-13.49
-17.96
-23.08
-28.93
-35.28
-41.41
-46.11
-48.12
-46.46
-40.91
-32.10
-21.41
-10.47
-0.69
7.07
12.66
16.39
18.74
20.07
20.53
20.14
19.00
17.42
15.89
14.97
14.99
15.95
17.46
18.94
19.83
19.78
18.69
16.70
14.03
10.89
7.43
3.67
-0.34
-4.58
-9.01
-13.59
-18.38
-23.51
-29.04
-34.76
-40.07
-43.99
-45.40
-43.47
-37.99
-29.58
-19.46
-9.11
0.28
8.03
14.01
18.44
21.55
23.47
24.15
23.66
22.29
20.60
19.23
18.68
19.13
20.29
21.66
22.60
22.67
21.67
19.67
16.92
13.70
10.27
6.75
3.23
-0.33
-3.96
-7.69
-11.61
-15.81
-20.48
-25.73
-31.48
-37.23
-42.02
-44.65
-44.02
-39.57
-31.54
-21.02
-9.56
1.25
10.27
16.99
21.51
24.23
25.62
26.05
25.74
24.91
23.79
22.69
21.92
21.70
22.11
22.97
24.02
24.86
25.12
24.54
23.02
20.65
17.64
14.28
10.75
7.16
3.52
-0.13
-3.79
-7.50
-11.41
-15.78
-20.81
-26.49
-32.30
-37.29
-40.25
-40.07
-36.23
-28.95
-19.26
-8.56
1.65
10.33
16.94
21.53
24.41
25.94
26.35
25.76
24.33
22.39
20.47
19.10
18.61
18.99
19.82
20.55
20.70
20.00
18.47
16.27
13.60
10.59
7.34
3.92
0.39
-3.13
-6.58
-9.87
-13.04
-16.20
-19.61
-23.60
-28.34
-33.61
-38.67
-42.30
-43.20
-40.50
-34.14
-24.99
-14.57
-4.46
4.14
10.68
15.23
18.13
19.73
20.22
19.69
18.31
16.44
14.62
13.44
13.26
14.14
15.81
17.78
19.57
20.79
21.21
20.74
19.33
17.00
13.87
10.11
5.97
1.78
-2.21
-5.85
-9.17
-12.38
-15.94
-20.34
-25.92
-32.48
-39.18
-44.59
-47.10
-45.58
-39.83
-30.68
-19.70
-8.62
1.25
9.27
15.37
19.78
22.74
24.40
24.86
24.32
23.11
21.69
20.47
19.73
19.59
20.00
20.77
21.66
22.38
22.59
21.99
20.39
17.72
14.11
9.84
5.28
0.82
-3.25
-6.77
-9.83
-12.71
-15.90
-19.89
-25.01
-31.13
-37.53
-43.04
-46.24
-45.99
-41.77
-33.95
-23.64
-12.38
-1.64
7.54
14.63
19.66
22.90
24.65
25.19
24.74
23.64
22.29
21.17
20.58
20.62
21.07
21.61
21.93
21.93
21.62
21.05
20.17
18.79
16.67
13.69
9.95
5.73
1.43
-2.63
-6.29
-9.57
-12.69
-15.96
-19.80
-24.46
-29.95
-35.82
-41.10
-44.56
-45.00
-41.80
-35.06
-25.71
-15.14
-4.74
4.41
11.77
17.24
20.93
23.04
23.76
23.37
22.28
21.04
20.13
19.87
20.30
21.16
22.11
22.86
23.26
23.31
23.05
22.40
21.24
19.38
16.73
13.40
9.66
5.87
2.31
-0.88
-3.78
-6.58
-9.53
-12.89
-16.88
-21.70
-27.33
-33.46
-39.34
-43.89
-45.90
-44.50
-39.48
-31.39
-21.45
-11.08
-1.52
6.46
12.55
16.81
19.45
20.72
20.92
20.33
19.35
18.36
17.69
17.57
17.99
18.84
19.83
20.69
21.18
21.16
20.60
19.56
18.12
16.33
14.20
11.68
8.77
5.53
2.12
-1.27
-4.46
-7.44
-10.42
-13.73
-17.80
-22.83
-28.70
-34.79
-40.01
-43.14
-43.10
-39.42
-32.41
-23.12
-12.97
-3.33
4.85
11.16
15.57
18.28
19.43
19.22
17.89
15.86
13.68
11.93
11.00
11.01
11.77
12.87
13.85
14.33
14.12
13.15
11.49
9.27
6.57
3.51
0.19
-3.28
-6.75
-10.05
-13.06
-15.80
-18.39
-21.15
-24.46
-28.59
-33.48
-38.58
-42.88
-45.12
-44.26
-39.82
-32.20
-22.54
-12.34
-2.93
4.89
10.89
15.21
18.09
19.64
19.86
18.87
16.98
14.77
12.91
11.90
11.90
12.72
13.96
15.17
15.99
16.20
15.72
14.52
12.58
9.99
6.85
3.35
-0.26
-3.74
-6.95
-9.90
-12.82
-16.19
-20.49
-26.03
-32.64
-39.50
-45.25
-48.32
-47.53
-42.51
-33.93
-23.25
-12.19
-2.24
5.82
11.80
15.96
18.62
19.99
20.21
19.46
18.13
16.69
15.57
14.97
14.87
15.13
15.57
16.11
16.67
17.11
17.16
16.53
14.96
12.44
9.18
5.52
1.79
-1.87
-5.45
-9.12
-13.10
-17.65
-22.99
-29.13
-35.76
-42.06
-46.87
-48.88
-47.22
-41.70
-33.08
-22.74
-12.28
-2.97
4.57
10.32
14.57
17.64
19.67
20.66
20.65
19.85
18.67
17.57
16.90
16.81
17.14
17.67
18.10
18.17
17.77
16.83
15.35
13.30
10.69
7.55
4.01
0.23
-3.65
-7.48
-11.38
-15.57
-20.34
-25.88
-31.99
-37.99
-42.68
-44.81
-43.42
-38.29
-30.05
-20.03
-9.75
-0.46
7.17
13.09
17.55
20.91
23.32
24.77
25.22
24.78
23.77
22.62
21.80
21.54
21.83
22.45
23.03
23.21
22.72
21.46
19.45
16.88
13.87
10.56
7.03
3.31
-0.52
-4.44
-8.45
-12.73
-17.51
-22.98
-29.05
-35.13
-40.15
-42.76
-41.90
-37.11
-28.92
-18.55
-7.60
2.50
10.85
17.17
21.61
24.48
26.07
26.55
26.05
24.83
23.25
21.82
20.93
20.84
21.44
22.45
23.39
23.82
23.45
22.19
20.15
17.48
14.33
10.79
6.95
2.91
-1.18
-5.16
-9.03
-13.00
-17.42
-22.67
-28.80
-35.35
-41.28
-45.24
-46.00
-42.98
-36.49
-27.63
-17.96
-8.87
-1.24
4.71
9.15
12.43
14.64
15.77
15.74
14.66
12.94
11.18
10.00
9.78
10.56
12.00
13.59
14.78
15.14
14.50
12.90
10.57
7.79
4.81
1.77
-1.26
-4.27
-7.31
-10.42
-13.80
-17.63
-22.10
-27.15
-32.34
-36.80
-39.32
-38.85
-34.76
-27.28
-17.37
-6.51
3.80
12.50
19.08
23.57
26.22
27.36
27.20
25.97
24.02
21.86
20.06
19.05
19.01
19.73
20.78
21.63
21.85
21.18
19.54
17.02
13.77
10.07
6.20
2.43
-1.04
-4.21
-7.19
-10.31
-13.96
-18.50
-24.11
-30.60
-37.31
-43.11
-46.67
-46.82
-42.97
-35.40
-25.15
-13.81
-2.96
6.22
13.19
18.03
21.20
23.20
24.40
24.94
24.83
24.14
23.07
22.00
21.32
21.24
21.68
22.27
22.52
22.01
20.57
18.29
15.49
12.46
9.43
6.40
3.25
-0.17
-3.94
-8.04
-12.44
-17.11
-22.14
-27.52
-33.10
-38.33
-42.28
-43.90
-42.27
-37.11
-28.87
-18.72
-8.16
1.46
9.29
15.09
19.10
21.75
23.41
24.32
24.59
24.32
23.75
23.16
22.85
22.97
23.49
24.17
24.72
24.83
24.31
23.09
21.15
18.64
15.67
12.38
8.87
5.19
1.39
-2.49
-6.43
-10.48
-14.77
-19.57
-24.99
-30.86
-36.45
-40.61
-42.06
-39.89
-34.03
-25.26
-15.10
-5.12
3.43
10.01
14.67
17.82
19.86
21.04
21.45
21.14
20.23
19.05
17.99
17.43
17.56
18.34
19.45
20.48
21.02
20.83
19.80
17.94
15.35
12.12
8.34
4.16
-0.24
-4.69
-9.15
-13.68
-18.48
-23.77
-29.71
-36.26
-43.18
-50.03
-56.14
-60.79
-63.24
-63.04
-60.11
-54.85
-48.07
-40.78
-34.00
-28.50
-24.78
-23.00
-22.98
-24.19
-25.70
-26.26
-24.46
-19.09
-9.41
4.45
21.42
39.39
55.54
67.03
71.77
69.33
61.08
49.81
38.56
29.53
23.32
19.17
15.79
12.34
8.96
6.42
5.47
5.97
6.87
6.69
4.47
0.47
-3.90
-6.69
-6.29
-2.18
4.91
13.47
21.86
28.88
34.12
37.66
39.80
40.64
40.05
37.75
33.64
27.97
21.45
14.99
9.46
5.43
2.94
1.57
0.61
-0.58
-2.22
-4.08
-5.57
-6.16
-5.72
-4.60
-3.51
-3.05
-3.51
-4.70
-6.30
-8.13
-10.38
-13.44
-17.50
-22.21
-26.58
-29.33
-29.38
-26.39
-20.85
-13.83
-6.60
-0.21
4.68
7.79
9.10
8.65
6.59
3.18
-1.15
-5.74
-9.83
-12.70
-13.82
-13.10
-10.90
-7.95
-5.14
-3.25
-2.76
-3.66
-5.67
-8.35
-11.35
-14.50
-17.74
-21.05
-24.39
-27.73
-31.08
-34.56
-38.28
-42.10
-45.48
-47.51
-47.13
-43.58
-36.81
-27.56
-17.16
-7.01
1.86
9.04
14.69
19.18
22.77
25.43
26.94
27.13
26.12
24.46
22.88
22.13
22.51
23.84
25.58
27.02
27.68
27.41
26.34
24.73
22.79
20.52
17.81
14.50
10.46
5.60
-0.10
-6.60
-13.74
-21.01
-27.63
-32.51
-34.61
-33.25
-28.35
-20.56
-11.01
-1.03
8.28
16.16
22.24
26.45
28.81
29.47
28.62
26.62
23.93
21.08
18.49
16.47
15.08
14.19
13.59
12.96
12.12
10.94
9.44
7.70
5.79
3.73
1.39
-1.36
-4.70
-8.68
-13.24
-18.26
-23.53
-28.74
-33.47
-37.06
-38.72
-37.77
-33.80
-27.00
-18.09
-8.19
1.52
10.12
17.06
22.18
25.54
27.30
27.66
26.84
25.17
23.09
21.12
19.70
19.15
19.55
20.73
22.37
24.00
25.18
25.52
24.83
23.06
20.34
16.91
13.05
9.00
4.88
0.72
-3.67
-8.53
-14.08
-20.33
-26.84
-32.80
-37.03
-38.52
-36.64
-31.50
-23.92
-15.13
-6.38
1.40
7.63
12.12
14.73
15.41
14.16
11.17
7.04
2.65
-0.98
-3.06
-3.27
-1.96
0.12
2.04
3.04
2.84
1.58
-0.30
-2.35
-4.31
-6.16
-8.01
-9.99
-12.25
-14.84
-17.91
-21.59
-25.87
-30.41
-34.39
-36.71
-36.28
-32.50
-25.53
-16.28
-6.12
3.57
11.79
18.07
22.34
24.73
25.36
24.34
21.79
18.13
14.02
10.26
7.60
6.49
6.89
8.33
10.16
11.74
12.68
12.92
12.58
11.87
10.91
9.66
7.92
5.53
2.33
-1.67
-6.39
-11.72
-17.50
-23.47
-29.09
-33.64
-36.17
-35.90
-32.44
-26.01
-17.50
-8.13
0.80
8.26
13.68
16.88
17.98
17.26
15.09
11.86
8.07
4.29
1.17
-0.69
-0.90
0.55
3.20
6.21
8.64
9.72
9.17
7.19
4.31
1.10
-2.04
-5.07
-8.13
-11.51
-15.40
-19.85
-24.67
-29.46
-33.60
-36.30
-36.75
-34.36
-29.03
-21.21
-11.85
-2.15
6.81
14.23
19.75
23.25
24.81
24.54
22.67
19.53
15.59
11.47
7.72
4.81
2.92
1.97
1.68
1.64
1.56
1.23
0.65
-0.12
-0.99
-1.99
-3.24
-4.93
-7.22
-10.16
-13.74
-17.80
-22.10
-26.26
-29.65
-31.53
-31.15
-28.16
-22.78
-15.85
-8.50
-1.71
4.08
8.98
13.33
17.35
20.75
22.99
23.65
22.87
21.55
20.89
21.91
24.80
28.91
33.10
36.33
38.13
38.64
38.35
37.70
36.78
35.31
32.87
29.22
24.45
19.03
13.73
9.42
6.66
5.50
5.44
5.67
5.58
5.09
4.77
5.42
7.72
11.80
17.32
23.68
30.22
36.21
40.77
42.80
41.28
35.81
26.96
16.40
6.31
-1.37
-5.67
-6.79
-5.78
-4.06
-2.84
-2.89
-4.56
-7.84
-12.65
-18.79
-26.07
-34.18
-42.64
-50.72
-57.49
-61.97
-63.37
-61.28
-55.85
-47.79
-38.16
-28.15
-18.74
-10.56
-3.91
1.16
4.57
6.30
6.38
5.12
3.15
1.35
0.55
1.18
3.18
5.92
8.63
10.60
11.53
11.50
10.82
9.81
8.59
7.10
5.04
2.09
-1.96
-7.07
-12.81
-18.44
-22.93
-25.33
-24.92
-21.60
-15.79
-8.39
-0.46
7.08
13.49
18.36
21.39
22.51
21.78
19.52
16.30
12.84
9.89
7.92
7.13
7.26
7.94
8.68
9.14
9.15
8.67
7.74
6.34
4.41
1.82
-1.49
-5.57
-10.28
-15.41
-20.55
-25.15
-28.53
-29.97
-28.94
-25.24
-19.17
-11.50
-3.24
4.45
10.68
14.86
16.76
16.50
14.44
11.13
7.24
3.45
0.37
-1.60
-2.34
-2.05
-1.18
-0.27
0.22
-0.01
-1.02
-2.71
-4.84
-7.25
-9.82
-12.57
-15.66
-19.23
-23.31
-27.61
-31.41
-33.76
-33.72
-30.74
-24.91
-17.02
-8.20
0.33
7.68
13.28
16.93
18.57
18.28
16.29
13.09
9.40
6.05
3.75
2.82
3.12
4.10
5.06
5.40
4.83
3.41
1.47
-0.62
-2.62
-4.59
-6.84
-9.88
-14.10
-19.55
-25.77
-31.78
-36.31
-38.16
-36.70
-32.05
-25.13
-17.25
-9.64
-3.06
2.30
6.65
10.24
12.95
14.38
13.99
11.55
7.44
2.66
-1.45
-3.65
-3.10
0.37
6.39
14.18
22.64
30.43
36.04
38.08
35.68
29.01
19.20
8.13
-2.41
-11.41
-18.74
-24.84
-29.96
-33.68
-34.97
-32.86
-27.11
-18.55
-8.85
0.36
8.00
13.94
18.60
22.40
25.36
27.14
27.37
26.01
23.54
20.76
18.51
17.35
17.32
18.04
18.82
18.99
18.02
15.76
12.37
8.36
4.29
0.54
-2.78
-5.88
-9.16
-13.02
-17.61
-22.78
-28.08
-32.71
-35.77
-36.37
-33.99
-28.63
-20.92
-11.96
-2.96
5.05
11.50
16.25
19.46
21.36
22.12
21.83
20.65
18.84
16.79
14.95
13.69
13.21
13.42
13.95
14.35
14.15
13.09
11.22
8.82
6.24
3.78
1.50
-0.70
-3.02
-5.63
-8.61
-12.01
-15.84
-20.07
-24.51
-28.68
-31.75
-32.74
-30.83
-25.70
-17.72
-7.87
2.49
12.13
20.15
26.08
29.88
31.67
31.70
30.26
27.80
24.83
21.94
19.67
18.35
18.19
19.14
21.03
23.42
25.75
27.34
27.65
26.43
23.89
20.58
17.15
14.04
11.36
9.06
7.01
5.26
3.83
2.36
-0.03
-4.50
-11.69
-20.97
-30.31
-36.97
-38.73
-35.03
-27.27
-18.13
-10.27
-5.22
-3.00
-2.66
-3.07
-3.67
-4.51
-5.89
-7.78
-9.65
-10.65
-10.08
-7.77
-4.20
-0.36
2.68
4.21
4.10
2.73
0.77
-1.15
-2.75
-4.05
-5.37
-7.03
-9.26
-12.14
-15.57
-19.32
-22.93
-25.77
-27.04
-26.07
-22.56
-16.75
-9.39
-1.53
5.89
12.29
17.38
21.13
23.46
24.19
23.22
20.65
17.01
13.11
9.86
7.82
7.17
7.57
8.44
9.19
9.39
8.94
7.90
6.44
4.68
2.68
0.39
-2.24
-5.26
-8.65
-12.42
-16.52
-20.83
-25.11
-28.88
-31.50
-32.31
-30.77
-26.82
-20.82
-13.59
-6.13
0.65
6.10
9.90
12.00
12.53
11.68
9.76
7.21
4.59
2.51
1.47
1.69
2.94
4.63
5.94
6.22
5.14
2.86
-0.11
-3.18
-5.93
-8.33
-10.66
-13.37
-16.82
-21.05
-25.77
-30.36
-34.11
-36.30
-36.44
-34.29
-29.97
-23.95
-16.96
-9.88
-3.49
1.59
5.05
6.83
7.04
5.95
3.91
1.42
-1.01
-2.84
-3.74
-3.62
-2.70
-1.45
-0.37
0.12
-0.10
-0.99
-2.27
-3.70
-5.14
-6.60
-8.27
-10.42
-13.34
-17.17
-21.82
-26.80
-31.29
-34.26
-34.74
-32.19
-26.69
-18.99
-10.23
-1.65
5.86
11.79
16.02
18.62
19.69
19.34
17.73
15.28
12.64
10.59
9.71
10.16
11.63
13.37
14.57
14.67
13.54
11.43
8.78
5.97
3.15
0.31
-2.74
-6.17
-10.13
-14.68
-19.72
-24.95
-29.74
-33.19
-34.33
-32.53
-27.66
-20.33
-11.63
-2.81
5.09
11.50
16.22
19.35
20.99
21.23
20.19
18.09
15.46
12.92
11.10
10.32
10.50
11.18
11.76
11.73
10.92
9.50
7.76
5.97
4.15
2.08
-0.55
-4.07
-8.59
-14.09
-20.29
-26.72
-32.62
-37.04
-39.01
-37.83
-33.32
-26.00
-16.91
-7.37
1.42
8.66
14.05
17.65
19.72
20.48
20.21
19.13
17.58
15.98
14.74
14.18
14.39
15.21
16.24
17.00
17.05
16.14
14.27
11.65
8.61
5.38
2.09
-1.36
-5.21
-9.67
-14.86
-20.60
-26.42
-31.51
-34.91
-35.70
-33.35
-27.92
-20.13
-11.18
-2.33
5.46
11.77
16.57
20.09
22.43
23.53
23.32
21.85
19.58
17.19
15.50
14.95
15.59
16.95
18.32
19.09
18.87
17.70
15.83
13.58
11.15
8.56
5.77
2.69
-0.65
-4.25
-8.15
-12.50
-17.37
-22.57
-27.49
-31.15
-32.49
-30.73
-25.76
-18.17
-9.06
0.25
8.70
15.62
20.77
24.16
25.99
26.42
25.71
24.17
22.24
20.47
19.34
19.16
19.91
21.29
22.78
23.82
24.01
23.17
21.41
18.96
16.11
13.03
9.83
6.48
2.98
-0.65
-4.34
-7.98
-11.61
-15.36
-19.40
-23.75
-28.02
-31.45
-32.99
-31.77
-27.42
-20.34
-11.52
-2.29
6.17
13.10
18.18
21.49
23.22
23.63
22.96
21.58
19.93
18.51
17.70
17.67
18.32
19.33
20.32
20.99
21.13
20.72
19.74
18.21
16.11
13.51
10.46
7.11
3.66
0.30
-2.83
-5.72
-8.42
-11.19
-14.31
-18.16
-22.89
-28.36
-33.98
-38.71
-41.36
-40.89
-36.89
-29.67
-20.28
-10.18
-0.79
6.85
12.28
15.52
16.93
16.97
16.10
14.74
13.32
12.24
11.84
12.30
13.55
15.33
17.19
18.76
19.73
19.93
19.35
17.95
15.83
13.09
9.89
6.48
3.13
0.10
-2.50
-4.71
-6.78
-9.05
-11.93
-15.70
-20.41
-25.73
-30.90
-34.87
-36.55
-35.18
-30.61
-23.33
-14.41
-5.12
3.43
10.50
15.75
19.18
20.96
21.33
20.60
19.17
17.58
16.34
15.82
16.17
17.19
18.48
19.60
20.23
20.25
19.73
18.78
17.42
15.57
13.11
10.00
6.37
2.55
-1.13
-4.38
-7.19
-9.73
-12.32
-15.32
-19.01
-23.50
-28.63
-33.91
-38.52
-41.42
-41.65
-38.65
-32.56
-24.19
-14.83
-5.76
2.06
8.25
12.87
16.19
18.43
19.61
19.77
19.01
17.72
16.43
15.70
15.81
16.69
17.95
19.09
19.75
19.74
19.10
17.94
16.31
14.24
11.70
8.78
5.62
2.44
-0.54
-3.21
-5.61
-7.91
-10.36
-13.29
-16.98
-21.60
-26.98
-32.59
-37.48
-40.54
-40.79
-37.73
-31.59
-23.24
-13.96
-5.02
2.65
8.60
12.86
15.66
17.31
18.03
18.01
17.43
16.54
15.65
15.07
14.99
15.47
16.39
17.48
18.45
19.00
18.95
18.19
16.71
14.56
11.83
8.68
5.27
1.80
-1.52
-4.53
-7.12
-9.40
-11.61
-14.22
-17.69
-22.28
-27.80
-33.50
-38.25
-40.78
-40.19
-36.24
-29.47
-21.00
-12.11
-3.87
3.12
8.69
12.91
15.87
17.60
18.18
17.81
16.89
15.97
15.55
15.86
16.82
18.05
19.15
19.79
19.89
19.52
18.80
17.81
16.45
14.58
12.05
8.90
5.29
1.55
-1.95
-5.00
-7.55
-9.79
-12.07
-14.86
-18.51
-23.19
-28.63
-34.13
-38.66
-41.08
-40.56
-36.81
-30.26
-21.90
-12.94
-4.49
2.71
8.32
12.32
14.87
16.14
16.34
15.72
14.68
13.64
12.96
12.86
13.35
14.20
15.10
15.74
15.84
15.27
13.94
11.87
9.16
5.98
2.55
-0.88
-4.15
-7.16
-9.89
-12.43
-14.88
-17.45
-20.41
-23.95
-28.12
-32.63
-36.80
-39.67
-40.32
-38.10
-32.96
-25.47
-16.64
-7.67
0.40
6.88
11.50
14.37
15.77
16.13
15.76
15.00
14.07
13.27
12.87
13.07
13.92
15.24
16.66
17.69
17.92
17.14
15.35
12.76
9.71
6.51
3.39
0.47
-2.34
-5.17
-8.20
-11.55
-15.28
-19.47
-24.08
-29.05
-34.04
-38.45
-41.39
-41.90
-39.30
-33.49
-25.06
-15.14
-5.07
4.01
11.40
16.90
20.66
22.97
24.14
24.40
23.96
23.01
21.81
20.66
19.83
19.52
19.74
20.35
20.98
21.21
20.69
19.18
16.71
13.47
9.79
5.94
2.20
-1.33
-4.61
-7.70
-10.76
-14.01
-17.69
-22.04
-27.07
-32.48
-37.59
-41.41
-42.84
-41.08
-35.92
-27.86
-18.02
-7.84
1.41
8.87
14.30
17.87
20.01
21.15
21.58
21.51
21.12
20.64
20.38
20.59
21.41
22.73
24.23
25.47
26.05
25.72
24.44
22.31
19.49
16.15
12.38
8.30
4.07
-0.09
-3.97
-7.46
-10.62
-13.74
-17.18
-21.33
-26.37
-32.11
-37.87
-42.60
-45.09
-44.37
-40.08
-32.63
-23.11
-12.93
-3.33
4.86
11.36
16.25
19.77
22.11
23.40
23.80
23.58
23.15
22.92
23.21
24.06
25.31
26.59
27.54
27.92
27.67
26.90
25.73
24.25
22.34
19.89
16.80
13.12
9.11
5.13
1.50
-1.62
-4.30
-6.90
-9.87
-13.71
-18.68
-24.71
-31.24
-37.31
-41.76
-43.52
-41.99
-37.25
-29.94
-21.18
-12.06
-3.51
3.98
10.23
15.25
19.06
21.64
22.95
23.13
22.57
21.81
21.50
22.05
23.53
25.60
27.69
29.24
29.88
29.61
28.63
27.26
25.68
23.88
21.67
18.77
15.11
10.86
6.40
2.20
-1.45
-4.56
-7.39
-10.34
-13.77
-17.92
-22.85
-28.48
-34.52
-40.38
-45.16
-47.83
-47.42
-43.57
-36.59
-27.59
-17.97
-8.97
-1.35
4.70
9.32
12.72
14.88
15.76
15.35
14.03
12.52
11.60
11.88
13.40
15.71
18.01
19.66
20.32
20.14
19.56
18.95
18.46
17.85
16.68
14.54
11.33
7.31
3.02
-0.92
-4.08
-6.37
-8.07
-9.72
-11.90
-15.12
-19.61
-25.24
-31.42
-37.26
-41.62
-43.45
-42.02
-37.23
-29.60
-20.17
-10.20
-0.83
7.14
13.38
17.89
20.84
22.44
22.85
22.29
21.08
19.74
18.81
18.79
19.86
21.85
24.28
26.52
28.06
28.55
28.01
26.61
24.70
22.51
20.14
17.52
14.47
10.90
6.86
2.62
-1.54
-5.36
-8.83
-12.11
-15.52
-19.37
-23.93
-29.28
-35.29
-41.48
-47.06
-50.90
-51.94
-49.47
-43.49
-34.78
-24.64
-14.46
-5.27
2.46
8.77
13.87
17.88
20.74
22.29
22.57
21.90
20.90
20.25
20.41
21.40
22.90
24.38
25.38
25.72
25.50
24.98
24.34
23.58
22.45
20.65
17.95
14.33
10.12
5.76
1.71
-1.78
-4.71
-7.37
-10.12
-13.38
-17.48
-22.61
-28.72
-35.43
-41.93
-47.08
-49.67
-48.81
-44.27
-36.62
-27.02
-16.87
-7.38
0.73
7.27
12.41
16.35
19.27
21.15
21.97
21.83
21.04
20.14
19.67
20.02
21.20
22.90
24.55
25.63
25.86
25.24
24.05
22.62
21.19
19.77
18.17
16.12
13.42
10.07
6.31
2.53
-0.89
-3.75
-6.15
-8.49
-11.30
-15.02
-19.86
-25.66
-31.82
-37.50
-41.69
-43.47
-42.24
-37.87
-30.78
-21.83
-12.18
-2.90
5.14
11.47
15.98
18.80
20.20
20.48
20.01
19.19
18.44
18.10
18.36
19.13
20.18
21.18
21.82
21.97
21.61
20.82
19.70
18.30
16.58
14.38
11.56
8.00
3.78
-0.83
-5.41
-9.51
-12.86
-15.50
-17.76
-20.15
-23.19
-27.18
-32.14
-37.67
-43.00
-47.14
-49.02
-47.92
-43.64
-36.67
-28.01
-18.90
-10.41
-3.24
2.31
6.25
8.69
9.77
9.70
8.86
7.75
6.97
6.98
7.99
9.84
12.12
14.31
16.02
17.07
17.52
17.48
17.03
16.08
14.44
11.93
8.59
4.71
0.74
-2.83
-5.76
-8.04
-10.03
-12.19
-15.04
-18.87
-23.72
-29.17
-34.40
-38.27
-39.64
-37.74
-32.46
-24.47
-14.96
-5.36
3.20
10.05
14.99
18.16
19.75
19.98
19.10
17.50
15.75
14.41
13.88
14.25
15.26
16.46
17.43
17.91
17.88
17.44
16.63
15.42
13.63
11.13
7.92
4.18
0.22
-3.63
-7.13
-10.25
-13.18
-16.23
-19.78
-24.09
-29.22
-34.89
-40.45
-44.90
-47.16
-46.36
-42.10
-34.71
-25.12
-14.70
-4.81
3.50
9.71
13.80
16.14
17.24
17.57
17.51
17.25
16.94
16.68
16.54
16.63
16.99
17.61
18.39
19.14
19.62
19.57
18.81
17.26
14.99
12.17
9.07
5.88
2.77
-0.25
-3.20
-6.21
-9.42
-13.02
-17.22
-22.10
-27.55
-33.06
-37.78
-40.68
-40.80
-37.69
-31.46
-22.93
-13.30
-3.86
4.40
10.93
15.60
18.59
20.17
20.65
20.26
19.31
18.11
17.06
16.51
16.66
17.52
18.87
20.37
21.61
22.22
21.94
20.65
18.41
15.40
11.90
8.20
4.53
1.05
-2.20
-5.22
-8.08
-10.86
-13.83
-17.31
-21.64
-26.88
-32.60
-37.85
-41.31
-41.76
-38.53
-31.83
-22.69
-12.63
-3.11
4.84
10.81
14.92
17.55
19.06
19.73
19.78
19.43
18.94
18.60
18.64
19.12
19.88
20.68
21.19
21.17
20.52
19.29
17.58
15.46
12.97
10.06
6.72
3.03
-0.86
-4.70
-8.33
-11.68
-14.90
-18.28
-22.22
-26.93
-32.26
-37.58
-41.80
-43.73
-42.44
-37.70
-30.11
-20.93
-11.63
-3.40
3.12
7.88
11.12
13.18
14.22
14.34
13.67
12.49
11.28
10.53
10.60
11.54
13.15
14.98
16.54
17.43
17.43
16.51
14.75
12.31
9.33
5.99
2.45
-1.09
-4.46
-7.61
-10.57
-13.62
-17.07
-21.18
-25.98
-31.07
-35.67
-38.69
-39.11
-36.30
-30.27
-21.75
-11.92
-2.13
6.55
13.49
18.53
21.81
23.61
24.11
23.53
22.11
20.24
18.48
17.35
17.27
18.28
20.07
22.08
23.67
24.38
23.97
22.52
20.17
17.18
13.75
10.01
6.05
2.01
-1.99
-5.86
-9.59
-13.31
-17.29
-21.92
-27.45
-33.81
-40.45
-46.24
-49.88
-50.17
-46.60
-39.48
-29.95
-19.56
-9.70
-1.30
5.39
10.53
14.47
17.41
19.35
20.26
20.21
19.58
18.88
18.65
19.13
20.25
21.64
22.86
23.60
23.75
23.34
22.36
20.78
18.48
15.42
11.74
7.71
3.74
0.06
-3.25
-6.39
-9.70
-13.50
-18.09
-23.55
-29.65
-35.85
-41.25
-44.76
-45.40
-42.60
-36.40
-27.56
-17.30
-7.04
2.06
9.29
14.46
17.82
19.80
20.86
21.33
21.49
21.51
21.56
21.76
22.19
22.86
23.69
24.58
25.34
25.83
25.82
25.12
23.56
21.07
17.74
13.78
9.53
5.29
1.28
-2.41
-5.84
-9.19
-12.69
-16.60
-21.11
-26.24
-31.67
-36.68
-40.22
-41.18
-38.77
-32.94
-24.35
-14.34
-4.32
4.54
11.71
17.18
21.22
24.08
25.83
26.50
26.15
25.13
23.99
23.33
23.52
24.58
26.15
27.66
28.57
28.52
27.44
25.51
22.97
20.08
16.95
13.63
10.10
6.41
2.69
-0.86
-4.05
-6.79
-9.19
-11.62
-14.52
-18.35
-23.32
-29.23
-35.33
-40.49
-43.51
-43.37
-39.75
-33.06
-24.32
-14.86
-5.83
1.96
8.19
12.85
16.04
17.83
18.24
17.43
15.74
13.74
12.05
11.23
11.46
12.60
14.17
15.61
16.47
16.55
15.94
14.81
13.36
11.62
9.50
6.93
3.93
0.70
-2.54
-5.52
-8.18
-10.61
-13.10
-15.98
-19.55
-23.94
-28.91
-33.86
-37.82
-39.70
-38.65
-34.35
-27.21
-18.25
-8.75
0.13
7.59
13.29
17.18
19.40
20.12
19.58
18.18
16.40
14.82
13.84
13.68
14.24
15.22
16.27
17.08
17.52
17.49
16.97
15.86
14.06
11.51
8.24
4.47
0.47
-3.41
-6.95
-10.07
-12.91
-15.75
-18.95
-22.89
-27.70
-33.26
-38.93
-43.74
-46.48
-46.13
-42.23
-35.01
-25.47
-14.93
-4.76
4.06
11.06
16.18
19.57
21.48
22.13
21.72
20.60
19.12
17.74
16.79
16.44
16.67
17.23
17.82
18.16
18.02
17.28
15.89
13.83
11.10
7.70
3.71
-0.69
-5.25
-9.68
-13.75
-17.42
-20.92
-24.71
-29.35
-35.28
-42.42
-50.06
-56.88
-61.30
-62.10
-58.81
-51.99
-43.03
-33.66
-25.44
-19.29
-15.42
-13.38
-12.32
-11.26
-9.29
-5.76
-0.46
6.39
14.11
21.83
28.71
34.21
38.15
40.60
41.81
41.97
41.30
40.04
38.48
37.02
35.90
35.21
34.81
34.45
33.91
33.05
31.89
30.39
28.51
26.03
22.84
18.88
14.32
9.48
4.66
0.09
-4.14
-8.08
-11.94
-16.02
-20.69
-26.18
-32.36
-38.64
-43.93
-46.93
-46.56
-42.42
-34.96
-25.39
-15.21
-5.73
2.28
8.68
13.69
17.64
20.66
22.74
23.84
24.08
23.81
23.48
23.46
23.88
24.63
25.41
25.98
26.19
26.04
25.50
24.51
22.89
20.46
17.13
13.00
8.38
3.68
-0.66
-4.36
-7.44
-10.17
-13.06
-16.67
-21.39
-27.23
-33.69
-39.81
-44.32
-46.02
-44.17
-38.73
-30.44
-20.56
-10.45
-1.18
6.64
12.86
17.56
20.86
22.80
23.44
23.03
22.01
21.00
20.52
20.85
21.90
23.33
24.69
25.64
26.05
25.94
25.37
24.34
22.72
20.36
17.20
13.40
9.30
5.33
1.77
-1.28
-3.96
-6.57
-9.39
-12.71
-16.73
-21.59
-27.20
-33.13
-38.46
-41.98
-42.51
-39.32
-32.56
-23.19
-12.77
-2.77
5.78
12.50
17.52
21.07
23.33
24.37
24.26
23.35
22.18
21.37
21.33
22.09
23.29
24.42
25.05
25.05
24.53
23.71
22.77
21.67
20.28
18.37
15.80
12.56
8.80
4.78
0.78
-2.97
-6.38
-9.55
-12.76
-16.45
-21.01
-26.66
-33.16
-39.76
-45.26
-48.35
-48.04
-44.01
-36.83
-27.71
-18.14
-9.37
-2.14
3.38
7.31
9.83
11.00
10.81
9.43
7.29
5.12
3.67
3.45
4.47
6.29
8.23
9.65
10.16
9.71
8.50
6.77
4.76
2.58
0.25
-2.23
-4.84
-7.48
-10.05
-12.53
-15.02
-17.81
-21.23
-25.47
-30.26
-34.79
-37.88
-38.41
-35.71
-29.94
-21.96
-13.04
-4.38
3.17
9.20
13.57
16.29
17.34
16.82
15.02
12.41
9.65
7.40
6.08
5.87
6.62
7.92
9.23
10.00
9.84
8.60
6.41
3.60
0.57
-2.37
-5.06
-7.51
-9.84
-12.25
-15.03
-18.51
-22.92
-28.24
-33.93
-38.93
-41.86
-41.52
-37.34
-29.76
-20.03
-9.82
-0.57
6.88
12.37
16.20
18.62
19.70
19.34
17.46
14.39
10.84
7.81
6.07
5.94
7.10
8.78
10.16
10.63
10.05
8.59
6.67
4.59
2.51
0.38
-1.99
-4.83
-8.33
-12.59
-17.67
-23.44
-29.61
-35.54
-40.32
-42.93
-42.46
-38.54
-31.44
-22.16
-12.06
-2.46
5.71
12.07
16.64
19.70
21.40
21.85
21.13
19.47
17.33
15.37
14.26
14.31
15.46
17.14
18.54
18.94
17.95
15.66
12.51
9.10
5.83
2.84
0.02
-2.90
-6.19
-10.05
-14.62
-19.94
-25.92
-32.15
-37.87
-41.98
-43.36
-41.23
-35.51
-26.90
-16.70
-6.40
2.84
10.39
16.19
20.49
23.59
25.64
26.69
26.75
26.02
24.85
23.70
22.97
22.86
23.34
24.12
24.76
24.80
23.86
21.79
18.69
14.94
10.96
7.15
3.67
0.44
-2.82
-6.45
-10.73
-15.80
-21.55
-27.65
-33.46
-38.17
-40.80
-40.56
-36.99
-30.23
-21.00
-10.45
0.16
9.71
17.48
23.18
26.86
28.79
29.44
29.27
28.74
28.21
27.91
27.86
27.99
28.14
28.12
27.88
27.39
26.72
25.88
24.82
23.38
21.39
18.69
15.24
11.21
6.85
2.48
-1.63
-5.35
-8.67
-11.79
-15.02
-18.82
-23.57
-29.48
-36.29
-43.13
-48.69
-51.49
-50.44
-45.26
-36.68
-26.07
-15.05
-4.89
3.79
10.93
16.81
21.61
25.35
27.88
29.11
29.20
28.61
27.98
27.82
28.42
29.62
31.03
32.17
32.66
32.37
31.40
30.00
28.42
26.81
25.14
23.29
21.08
18.34
15.04
11.22
7.08
2.83
-1.29
-5.14
-8.73
-12.11
-15.42
-18.78
-22.43
-26.61
-31.63
-37.59
-44.15
-50.44
-55.08
-56.66
-54.19
-47.62
-37.85
-26.50
-15.27
-5.42
2.56
8.79
13.68
17.61
20.64
22.68
23.68
23.85
23.70
23.82
24.66
26.30
28.41
30.47
31.99
32.73
32.67
32.03
31.00
29.74
28.27
26.55
24.53
22.18
19.50
16.48
13.13
9.46
5.55
1.52
-2.52
-6.47
-10.28
-13.99
-17.73
-21.65
-26.03
-31.10
-36.92
-43.21
-49.20
-53.72
-55.49
-53.63
-47.98
-39.24
-28.80
-18.20
-8.68
-0.86
5.20
9.81
13.27
15.77
17.36
18.09
18.18
18.00
18.00
18.56
19.82
21.67
23.77
25.70
27.10
27.79
27.77
27.16
26.09
24.67
22.91
20.75
18.19
15.22
11.95
8.48
4.92
1.34
-2.26
-5.88
-9.55
-13.27
-17.12
-21.18
-25.62
-30.60
-36.14
-41.95
-47.32
-51.22
-52.55
-50.55
-45.08
-36.75
-26.73
-16.35
-6.73
1.52
8.20
13.35
17.04
19.25
19.98
19.44
18.11
16.71
15.91
16.07
17.04
18.32
19.32
19.68
19.41
18.88
18.48
18.39
18.43
18.17
17.17
15.17
12.22
8.65
4.97
1.61
-1.16
-3.36
-5.23
-7.17
-9.59
-12.85
-17.14
-22.40
-28.29
-34.12
-38.92
-41.59
-41.19
-37.30
-30.22
-20.97
-10.93
-1.52
6.31
12.15
16.08
18.46
19.60
19.78
19.10
17.75
16.02
14.32
13.10
12.63
13.03
14.09
15.41
16.53
17.03
16.66
15.41
13.44
10.99
8.35
5.65
3.02
0.52
-1.87
-4.13
-6.37
-8.81
-11.79
-15.65
-20.49
-25.98
-31.23
-35.01
-36.02
-33.47
-27.35
-18.53
-8.51
1.16
9.28
15.37
19.51
22.12
23.56
23.99
23.42
21.92
19.73
17.36
15.41
14.30
14.16
14.73
15.59
16.22
16.28
15.60
14.19
12.15
9.64
6.82
3.82
0.76
-2.28
-5.30
-8.32
-11.50
-15.07
-19.34
-24.50
-30.38
-36.36
-41.34
-44.07
-43.56
-39.53
-32.54
-23.85
-14.92
-6.95
-0.61
4.03
7.13
8.90
9.36
8.47
6.33
3.35
0.27
-2.10
-3.10
-2.59
-0.90
1.26
3.10
4.03
3.81
2.55
0.59
-1.71
-4.10
-6.48
-8.88
-11.41
-14.21
-17.37
-20.93
-24.91
-29.12
-33.22
-36.56
-38.26
-37.53
-33.87
-27.40
-18.87
-9.48
-0.51
7.09
12.80
16.60
18.62
19.06
18.01
15.66
12.35
8.69
5.44
3.31
2.68
3.43
5.03
6.68
7.64
7.46
6.11
3.92
1.38
-1.02
-3.10
-4.91
-6.79
-9.18
-12.45
-16.78
-22.05
-27.84
-33.41
-37.80
-40.03
-39.32
-35.39
-28.59
-19.90
-10.56
-1.83
5.44
10.85
14.44
16.47
17.17
16.77
15.40
13.40
11.17
9.31
8.28
8.32
9.30
10.70
11.90
12.29
11.58
9.79
7.21
4.27
1.29
-1.58
-4.49
-7.71
-11.64
-16.55
-22.54
-29.30
-36.13
-41.99
-45.66
-46.22
-43.25
-37.17
-29.00
-20.09
-11.61
-4.22
2.00
7.26
11.72
15.18
17.11
16.93
14.49
10.34
5.71
2.04
0.43
1.07
3.10
5.02
5.33
3.25
-1.04
-6.50
-11.83
-15.79
-17.45
-15.98
-10.80
-1.91
9.53
20.99
29.23
31.62
27.62
19.27
10.41
4.92
4.83
9.63
16.72
23.10
26.72
27.20
25.35
22.24
18.47
14.00
8.58
2.25
-4.31
-10.01
-13.71
-14.67
-12.96
-9.36
-5.19
-1.75
0.04
-0.06
-1.59
-3.75
-5.74
-7.20
-8.24
-9.37
-11.13
-13.85
-17.53
-21.94
-26.77
-31.77
-36.75
-41.36
-45.03
-46.97
-46.36
-42.71
-36.08
-27.12
-16.88
-6.48
3.22
11.78
19.09
25.29
30.46
34.59
37.61
39.50
40.44
40.84
41.23
42.02
43.35
44.89
46.07
46.26
45.10
42.63
39.25
35.44
31.48
27.38
22.91
17.80
11.92
5.36
-1.68
-9.04
-16.51
-23.85
-30.51
-35.65
-38.24
-37.46
-33.05
-25.49
-15.91
-5.74
3.71
11.57
17.54
21.69
24.26
25.53
25.72
25.05
23.82
22.43
21.31
20.77
20.97
21.83
23.09
24.42
25.44
25.82
25.35
23.92
21.56
18.43
14.80
10.90
6.92
2.90
-1.20
-5.47
-10.06
-15.12
-20.75
-26.81
-32.92
-38.25
-41.68
-42.13
-38.97
-32.31
-23.05
-12.58
-2.38
6.45
13.32
18.15
21.11
22.58
22.89
22.45
21.61
20.72
20.03
19.74
19.95
20.66
21.82
23.18
24.43
25.18
25.06
23.84
21.56
18.40
14.68
10.69
6.64
2.64
-1.25
-5.00
-8.65
-12.32
-16.23
-20.69
-25.87
-31.66
-37.44
-42.22
-44.79
-44.18
-39.99
-32.61
-23.12
-12.90
-3.23
5.05
11.62
16.49
19.87
21.83
22.42
21.74
20.05
17.94
16.09
15.13
15.33
16.53
18.18
19.64
20.36
20.09
18.79
16.57
13.60
9.96
5.81
1.35
-3.10
-7.17
-10.58
-13.20
-15.22
-17.00
-19.13
-22.14
-26.34
-31.59
-37.17
-41.92
-44.47
-43.75
-39.33
-31.61
-21.70
-10.97
-0.67
8.49
16.24
22.68
27.88
31.83
34.37
35.51
35.57
35.31
35.64
37.23
40.22
43.98
47.44
49.51
49.50
47.34
43.45
38.34
32.34
25.50
17.81
9.49
1.12
-6.45
-12.38
-16.29
-18.31
-19.22
-20.03
-21.75
-25.04
-30.02
-36.30
-42.88
-48.49
-51.71
-51.32
-46.65
-37.78
-25.66
-11.88
1.67
13.39
22.39
28.66
32.88
35.95
38.58
40.99
43.03
44.41
45.04
45.04
44.74
44.34
43.85
43.07
41.75
39.82
37.35
34.54
31.47
28.05
24.08
19.36
13.94
8.08
2.22
-3.20
-7.95
-12.06
-15.87
-19.87
-24.59
-30.41
-37.32
-44.82
-51.90
-57.23
-59.53
-58.02
-52.75
-44.60
-34.97
-25.33
-16.73
-9.65
-4.12
0.06
2.98
4.67
5.17
4.72
3.90
3.40
3.89
5.57
8.20
11.10
13.49
14.90
15.25
14.85
14.07
13.15
11.99
10.26
7.63
4.04
-0.19
-4.46
-8.21
-11.14
-13.34
-15.25
-17.46
-20.52
-24.73
-30.06
-36.13
-42.12
-46.98
-49.58
-49.04
-45.06
-37.99
-28.83
-18.87
-9.32
-0.99
5.77
10.95
14.74
17.30
18.75
19.28
19.17
18.79
18.53
18.66
19.27
20.26
21.35
22.33
22.94
23.04
22.54
21.37
19.51
16.92
13.71
9.95
5.89
1.74
-2.22
-5.76
-8.76
-11.24
-13.49
-15.98
-19.34
-24.04
-30.19
-37.25
-44.08
-49.12
-50.94
-48.71
-42.54
-33.53
-23.27
-13.41
-5.02
1.52
6.47
10.36
13.55
16.13
17.90
18.69
18.58
17.99
17.54
17.69
18.59
19.95
21.26
22.10
22.27
21.93
21.31
20.55
19.49
17.81
15.17
11.52
7.19
2.76
-1.18
-4.32
-6.73
-8.89
-11.43
-14.95
-19.84
-26.06
-33.10
-39.94
-45.31
-47.89
-46.85
-42.04
-34.14
-24.44
-14.38
-5.13
2.67
8.90
13.79
17.54
20.27
21.97
22.66
22.48
21.76
20.96
20.44
20.37
20.68
21.09
21.35
21.24
20.78
20.10
19.26
18.20
16.63
14.26
10.89
6.70
2.12
-2.23
-5.93
-8.87
-11.31
-13.75
-16.67
-20.41
-25.10
-30.66
-36.76
-42.75
-47.63
-50.26
-49.64
-45.33
-37.76
-28.02
-17.64
-7.94
0.28
6.85
12.06
16.28
19.68
22.18
23.62
23.96
23.45
22.58
21.94
21.91
22.54
23.52
24.33
24.53
23.93
22.66
21.10
19.56
18.14
16.65
14.68
11.90
8.27
4.13
0.06
-3.43
-6.19
-8.46
-10.80
-13.79
-17.80
-22.90
-28.91
-35.38
-41.65
-46.87
-50.01
-50.15
-46.78
-40.10
-30.97
-20.70
-10.61
-1.62
5.91
12.00
16.85
20.54
23.04
24.25
24.29
23.47
22.36
21.54
21.39
21.96
22.96
23.94
24.46
24.31
23.53
22.34
21.01
19.65
18.26
16.65
14.66
12.12
9.04
5.54
1.82
-1.83
-5.19
-8.14
-10.76
-13.30
-16.21
-19.95
-24.84
-30.84
-37.37
-43.41
-47.68
-49.05
-46.94
-41.49
-33.51
-24.23
-14.87
-6.30
1.02
7.01
11.69
15.11
17.26
18.12
17.90
16.98
15.93
15.29
15.40
16.25
17.50
18.66
19.26
19.17
18.44
17.37
16.18
14.87
13.24
10.99
7.96
4.18
0.00
-4.15
-7.84
-10.84
-13.16
-14.97
-16.61
-18.45
-20.90
-24.33
-28.96
-34.60
-40.56
-45.70
-48.65
-48.34
-44.36
-37.14
-27.81
-17.75
-8.13
0.36
7.46
13.21
17.60
20.53
21.86
21.60
20.09
17.95
15.96
14.76
14.67
15.58
17.00
18.38
19.23
19.40
19.03
18.41
17.78
17.12
16.11
14.34
11.54
7.76
3.47
-0.72
-4.27
-7.02
-9.22
-11.36
-14.00
-17.52
-22.08
-27.51
-33.38
-38.95
-43.19
-45.04
-43.68
-38.87
-31.05
-21.32
-11.02
-1.35
6.91
13.47
18.36
21.74
23.73
24.44
24.02
22.78
21.16
19.67
18.71
18.46
18.82
19.46
19.99
20.12
19.72
18.89
17.76
16.51
15.11
13.41
11.16
8.20
4.50
0.29
-4.01
-7.99
-11.35
-14.19
-16.88
-20.07
-24.31
-29.80
-36.14
-42.36
-47.14
-49.26
-47.96
-43.22
-35.69
-26.43
-16.55
-6.98
1.71
9.16
15.12
19.37
21.75
22.32
21.42
19.67
17.82
16.49
16.05
16.46
17.43
18.53
19.44
20.01
20.29
20.38
20.27
19.81
18.68
16.65
13.62
9.87
5.85
2.08
-1.14
-3.81
-6.25
-8.90
-12.18
-16.39
-21.56
-27.56
-33.91
-39.86
-44.39
-46.41
-45.14
-40.33
-32.53
-22.80
-12.53
-2.96
5.09
11.26
15.55
18.13
19.31
19.42
18.86
18.02
17.29
16.96
17.14
17.85
18.94
20.26
21.57
22.67
23.33
23.36
22.64
21.14
18.92
16.14
12.99
9.60
6.09
2.56
-0.94
-4.33
-7.63
-10.99
-14.73
-19.22
-24.62
-30.65
-36.43
-40.70
-42.16
-39.97
-34.14
-25.47
-15.30
-5.06
4.14
11.73
17.53
21.63
24.17
25.22
24.93
23.55
21.51
19.38
17.71
16.81
16.71
17.12
17.57
17.62
17.01
15.76
14.06
12.11
10.01
7.71
5.08
2.05
-1.28
-4.65
-7.75
-10.44
-12.85
-15.39
-18.60
-22.90
-28.31
-34.26
-39.73
-43.43
-44.25
-41.64
-35.80
-27.63
-18.41
-9.44
-1.65
4.48
8.87
11.67
13.12
13.43
12.77
11.41
9.67
7.97
6.71
6.22
6.61
7.76
9.33
10.85
11.86
12.03
11.27
9.68
7.58
5.30
3.10
1.07
-0.90
-3.05
-5.72
-9.19
-13.60
-18.87
-24.58
-30.02
-34.17
-36.03
-34.78
-30.15
-22.60
-13.18
-3.29
5.79
13.13
18.42
21.77
23.51
23.98
23.37
21.84
19.60
17.06
14.70
13.02
12.33
12.65
13.67
14.88
15.77
15.91
15.14
13.48
11.12
8.30
5.22
2.01
-1.30
-4.73
-8.41
-12.55
-17.37
-23.04
-29.40
-35.84
-41.29
-44.48
-44.32
-40.37
-33.05
-23.51
-13.30
-3.78
4.12
10.11
14.32
17.07
18.63
19.13
18.71
17.54
15.99
14.49
13.49
13.24
13.75
14.75
15.79
16.42
16.28
15.28
13.49
11.14
8.42
5.44
2.24
-1.22
-4.92
-8.87
-13.11
-17.78
-23.00
-28.74
-34.52
-39.37
-42.09
-41.63
-37.59
-30.39
-21.24
-11.60
-2.73
4.65
10.42
14.75
17.91
20.02
21.05
21.03
20.09
18.61
17.06
15.94
15.55
15.96
16.96
18.18
19.18
19.59
19.20
17.98
16.02
13.47
10.52
7.32
3.98
0.55
-3.03
-6.93
-11.38
-16.53
-22.28
-28.15
-33.24
-36.46
-36.81
-33.87
-27.84
-19.64
-10.53
-1.77
5.78
11.78
16.27
19.55
21.81
23.16
23.60
23.21
22.26
21.17
20.42
20.32
20.92
21.96
23.02
23.72
23.80
23.24
22.09
20.42
18.23
15.51
12.25
8.58
4.76
1.06
-2.36
-5.56
-8.86
-12.67
-17.31
-22.71
-28.34
-33.16
-35.97
-35.76
-32.11
-25.37
-16.59
-7.14
1.78
9.34
15.28
19.66
22.69
24.50
25.19
24.89
23.93
22.84
22.16
22.24
23.07
24.33
25.53
26.28
26.42
26.02
25.25
24.17
22.70
20.59
17.70
14.09
10.08
6.18
2.77
0.04
-2.20
-4.33
-6.88
-10.26
-14.73
-20.26
-26.47
-32.63
-37.70
-40.62
-40.55
-37.20
-31.01
-22.97
-14.33
-6.18
0.77
6.30
10.46
13.37
15.14
15.84
15.68
15.00
14.31
14.06
14.53
15.64
17.09
18.46
19.39
19.72
19.44
18.68
17.55
16.11
14.31
12.06
9.36
6.26
2.95
-0.28
-3.21
-5.69
-7.76
-9.61
-11.57
-13.99
-17.22
-21.37
-26.25
-31.24
-35.34
-37.44
-36.65
-32.70
-26.04
-17.71
-8.96
-0.82
6.12
11.77
16.20
19.50
21.55
22.23
21.59
20.00
18.15
16.79
16.50
17.33
18.91
20.54
21.57
21.66
20.87
19.58
18.17
16.87
15.56
13.92
11.61
8.49
4.76
0.81
-2.90
-6.11
-8.81
-11.26
-13.83
-16.89
-20.68
-25.25
-30.44
-35.75
-40.44
-43.57
-44.29
-42.07
-36.94
-29.53
-20.89
-12.16
-4.26
2.32
7.54
11.55
14.58
16.76
18.13
18.71
18.61
18.12
17.54
17.16
17.11
17.32
17.64
17.83
17.76
17.39
16.72
15.79
14.52
12.84
10.67
8.01
4.98
1.80
-1.29
-4.13
-6.64
-9.00
-11.46
-14.43
-18.24
-23.04
-28.57
-34.13
-38.67
-41.01
-40.30
-36.28
-29.48
-20.99
-12.12
-3.94
2.97
8.51
12.88
16.25
18.63
19.92
20.11
19.41
18.33
17.45
17.17
17.58
18.38
19.13
19.51
19.42
19.01
18.40
17.60
16.41
14.56
11.87
8.43
4.60
0.81
-2.58
-5.53
-8.30
-11.34
-15.09
-19.79
-25.38
-31.42
-37.23
-41.90
-44.56
-44.49
-41.38
-35.44
-27.41
-18.39
-9.50
-1.69
4.59
9.30
12.67
15.04
16.65
17.65
18.13
18.21
18.04
17.85
17.83
18.09
18.61
19.26
19.86
20.18
20.05
19.33
17.92
15.82
13.10
9.97
6.62
3.28
0.12
-2.80
-5.56
-8.32
-11.36
-14.98
-19.38
-24.57
-30.13
-35.28
-38.96
-40.16
-38.27
-33.30
-25.96
-17.38
-8.81
-1.17
5.02
9.72
13.15
15.56
17.15
17.99
18.15
17.73
16.96
16.09
15.42
15.14
15.25
15.63
16.01
16.12
15.73
14.71
13.06
10.82
8.09
4.99
1.65
-1.81
-5.24
-8.47
-11.37
-13.90
-16.24
-18.73
-21.82
-25.87
-30.90
-36.36
-41.25
-44.33
-44.58
-41.62
-35.80
-28.15
-19.88
-12.09
-5.37
0.10
4.43
7.75
10.13
11.60
12.25
12.39
12.40
12.66
13.42
14.63
16.06
17.39
18.35
18.79
18.68
18.04
16.88
15.22
13.04
10.42
7.49
4.43
1.41
-1.46
-4.11
-6.61
-9.10
-11.85
-15.16
-19.31
-24.37
-30.00
-35.48
-39.72
-41.60
-40.37
-35.91
-28.82
-20.20
-11.32
-3.16
3.69
9.11
13.24
16.27
18.31
19.40
19.57
18.97
17.91
16.75
15.88
15.53
15.78
16.54
17.55
18.57
19.33
19.60
19.17
17.87
15.62
12.50
8.78
4.83
1.06
-2.35
-5.36
-8.15
-11.03
-14.33
-18.33
-23.21
-28.92
-35.01
-40.64
-44.60
-45.71
-43.20
-37.06
-28.18
-18.00
-8.07
0.42
6.94
11.54
14.64
16.72
18.10
18.94
19.31
19.26
18.93
18.50
18.15
18.02
18.12
18.39
18.73
18.99
19.03
18.69
17.87
16.46
14.47
11.95
9.00
5.75
2.32
-1.18
-4.69
-8.18
-11.78
-15.69
-20.24
-25.60
-31.60
-37.58
-42.41
-44.80
-43.75
-38.94
-30.91
-20.93
-10.51
-0.99
6.84
12.75
16.94
19.75
21.45
22.23
22.25
21.70
20.89
20.16
19.81
19.95
20.51
21.24
21.88
22.26
22.29
21.98
21.31
20.20
18.52
16.20
13.25
9.87
6.34
2.95
-0.09
-2.79
-5.30
-7.96
-11.23
-15.51
-20.99
-27.42
-34.03
-39.59
-42.75
-42.54
-38.68
-31.73
-22.83
-13.32
-4.29
3.54
9.94
14.90
18.50
20.82
21.98
22.20
21.78
21.12
20.57
20.39
20.62
21.19
21.92
22.67
23.31
23.76
23.88
23.49
22.34
20.27
17.26
13.52
9.42
5.37
1.66
-1.60
-4.53
-7.38
-10.47
-14.10
-18.47
-23.67
-29.47
-35.32
-40.34
-43.44
-43.68
-40.57
-34.31
-25.77
-16.29
-7.20
0.50
6.41
10.59
13.35
15.05
15.86
15.92
15.37
14.45
13.53
12.91
12.76
13.03
13.53
14.06
14.44
14.58
14.43
13.90
12.86
11.26
9.07
6.41
3.41
0.29
-2.81
-5.72
-8.39
-10.85
-13.33
-16.24
-19.92
-24.49
-29.53
-34.10
-36.95
-36.97
-33.67
-27.34
-19.04
-10.11
-1.74
5.32
10.85
14.94
17.73
19.32
19.73
19.08
17.71
16.15
14.97
14.62
15.21
16.53
18.16
19.63
20.60
20.94
20.64
19.75
18.29
16.21
13.52
10.27
6.65
2.96
-0.51
-3.56
-6.22
-8.74
-11.60
-15.34
-20.29
-26.34
-32.77
-38.36
-41.69
-41.68
-37.91
-30.90
-21.83
-12.18
-3.26
4.11
9.65
13.51
15.95
17.24
17.57
17.15
16.22
15.12
14.21
13.76
13.86
14.43
15.26
16.13
16.83
17.23
17.18
16.59
15.36
13.46
10.94
7.97
4.81
1.69
-1.25
-4.06
-6.97
-10.40
-14.77
-20.31
-26.92
-33.91
-40.15
-44.24
-45.05
-42.03
-35.49
-26.54
-16.67
-7.28
0.68
6.86
11.37
14.58
16.83
18.36
19.26
19.63
19.57
19.25
18.87
18.62
18.66
19.01
19.61
20.24
20.61
20.42
19.48
17.69
15.15
12.03
8.59
5.11
1.75
-1.43
-4.54
-7.85
-11.67
-16.24
-21.54
-27.20
-32.48
-36.48
-38.26
-37.23
-33.28
-26.84
-18.81
-10.26
-2.19
4.71
10.09
13.91
16.30
17.40
17.44
16.69
15.60
14.67
14.37
14.88
16.06
17.51
18.73
19.42
19.47
19.01
18.11
16.81
15.05
12.77
9.95
6.63
2.92
-1.08
-5.23
-9.40
-13.44
-17.33
-21.14
-24.99
-28.87
-32.37
-34.71
-34.89
-32.16
-26.29
-17.89
-8.16
1.56
10.11
16.85
21.58
24.41
25.50
25.06
23.38
20.89
18.21
15.99
14.73
14.61
15.45
16.77
18.04
18.81
18.84
18.11
16.74
14.90
12.74
10.35
7.75
4.94
1.86
-1.62
-5.69
-10.51
-15.98
-21.61
-26.45
-29.34
-29.29
-25.90
-19.52
-11.22
-2.30
6.08
13.22
18.90
23.21
26.22
27.91
28.15
26.93
24.53
21.54
18.75
16.89
16.29
16.78
17.72
18.27
17.76
15.98
13.15
9.85
6.64
3.84
1.41
-0.91
-3.47
-6.56
-10.33
-14.80
-19.86
-25.22
-30.30
-34.27
-36.20
-35.35
-31.55
-25.24
-17.44
-9.31
-1.92
4.08
8.46
11.20
12.45
12.32
11.05
8.95
6.54
4.42
3.13
2.97
3.86
5.38
6.87
7.71
7.50
6.17
4.03
1.52
-0.91
-3.08
-5.06
-7.17
-9.82
-13.31
-17.73
-22.79
-27.93
-32.25
-34.90
-35.17
-32.78
-27.96
-21.34
-13.81
-6.18
0.86
6.86
11.48
14.43
15.51
14.67
12.21
8.77
5.27
2.56
1.22
1.29
2.36
3.74
4.72
4.90
4.18
2.76
0.90
-1.15
-3.34
-5.73
-8.43
-11.54
-15.12
-19.25
-23.93
-29.00
-33.98
-38.00
-40.01
-39.07
-34.80
-27.57
-18.46
-8.88
-0.10
7.12
12.56
16.39
18.82
19.90
19.57
17.79
14.81
11.29
8.15
6.23
5.95
7.10
8.86
10.23
10.43
9.20
6.88
4.11
1.51
-0.68
-2.61
-4.69
-7.36
-10.91
-15.40
-20.63
-26.12
-31.16
-34.81
-36.15
-34.47
-29.68
-22.31
-13.46
-4.39
3.82
10.62
15.88
19.74
22.37
23.76
23.89
22.81
20.87
18.68
16.95
16.18
16.45
17.39
18.35
18.73
18.13
16.56
14.27
11.62
8.87
6.06
3.11
-0.20
-4.07
-8.71
-14.19
-20.47
-27.23
-33.76
-39.07
-42.02
-41.75
-37.94
-31.02
-22.02
-12.30
-3.08
4.87
11.25
16.19
19.88
22.46
23.90
24.17
23.39
21.98
20.52
19.55
19.42
20.06
21.13
22.08
22.46
21.98
20.60
18.50
15.92
13.08
10.12
7.04
3.80
0.30
-3.51
-7.72
-12.45
-17.82
-23.83
-30.13
-35.95
-40.11
-41.45
-39.20
-33.48
-25.17
-15.68
-6.37
1.84
8.67
14.23
18.74
22.27
24.67
25.82
25.79
24.91
23.72
22.74
22.26
22.30
22.65
23.01
23.17
23.02
22.52
21.67
20.39
18.53
15.94
12.57
8.57
4.28
0.20
-3.25
-5.90
-7.98
-10.11
-13.07
-17.48
-23.47
-30.47
-37.30
-42.48
-44.66
-43.15
-38.04
-30.20
-20.92
-11.47
-2.78
4.70
10.86
15.75
19.36
21.63
22.56
22.34
21.46
20.52
20.13
20.61
21.89
23.58
25.16
26.24
26.64
26.46
25.85
24.94
23.66
21.81
19.24
15.94
12.16
8.32
4.82
1.89
-0.54
-2.76
-5.18
-8.19
-12.07
-16.96
-22.78
-29.18
-35.39
-40.39
-43.01
-42.34
-38.06
-30.57
-20.96
-10.62
-0.82
7.58
14.19
19.03
22.24
24.04
24.53
23.93
22.55
20.90
19.54
18.88
19.05
19.85
20.80
21.42
21.39
20.70
19.60
18.44
17.39
16.42
15.20
13.37
10.68
7.19
3.24
-0.68
-4.10
-6.88
-9.15
-11.35
-14.04
-17.70
-22.56
-28.47
-34.86
-40.75
-45.00
-46.55
-44.78
-39.72
-31.99
-22.65
-12.85
-3.55
4.62
11.26
16.18
19.24
20.43
19.93
18.26
16.14
14.34
13.42
13.54
14.45
15.67
16.70
17.30
17.45
17.34
17.14
16.86
16.31
15.14
13.13
10.20
6.60
2.73
-0.94
-4.11
-6.68
-8.86
-11.02
-13.58
-16.94
-21.23
-26.37
-31.83
-36.74
-40.05
-40.76
-38.32
-32.75
-24.80
-15.59
-6.35
1.96
8.81
14.04
17.69
19.87
20.68
20.30
19.05
17.39
15.84
14.79
14.38
14.53
14.96
15.38
15.56
15.43
15.00
14.29
13.28
11.88
9.98
7.53
4.52
1.08
-2.56
-6.14
-9.44
-12.37
-15.01
-17.67
-20.76
-24.70
-29.66
-35.32
-40.82
-44.93
-46.39
-44.41
-38.97
-30.84
-21.29
-11.68
-3.05
4.10
9.70
13.87
16.72
18.27
18.56
17.77
16.35
14.87
13.87
13.63
14.11
15.01
15.94
16.58
16.78
16.58
16.01
15.08
13.69
11.70
8.96
5.55
1.71
-2.17
-5.69
-8.61
-10.94
-12.98
-15.24
-18.23
-22.34
-27.63
-33.75
-39.90
-44.94
-47.64
-47.04
-42.77
-35.24
-25.56
-15.19
-5.49
2.68
9.03
13.69
16.96
19.04
20.05
20.01
19.15
17.83
16.55
15.75
15.61
16.05
16.80
17.53
18.03
18.22
18.10
17.64
16.78
15.39
13.40
10.77
7.61
4.10
0.49
-3.04
-6.39
-9.58
-12.78
-16.28
-20.45
-25.51
-31.45
-37.81
-43.65
-47.77
-48.97
-46.54
-40.45
-31.52
-21.08
-10.59
-1.15
6.64
12.66
17.08
20.04
21.60
21.80
20.83
19.15
17.40
16.22
15.98
16.65
17.87
19.14
20.05
20.42
20.32
19.93
19.37
18.60
17.44
15.65
13.08
9.79
6.04
2.22
-1.37
-4.65
-7.77
-11.09
-14.98
-19.66
-25.12
-31.06
-36.90
-41.83
-44.92
-45.31
-42.48
-36.47
-27.93
-17.95
-7.78
1.57
9.46
15.65
20.15
23.02
24.39
24.43
23.54
22.22
21.06
20.48
20.62
21.36
22.39
23.38
24.08
24.37
24.22
23.63
22.56
20.96
18.79
16.01
12.68
8.92
4.93
0.94
-2.84
-6.28
-9.41
-12.38
-15.56
-19.37
-24.12
-29.77
-35.81
-41.20
-44.65
-45.00
-41.71
-35.08
-26.11
-16.22
-6.71
1.51
8.02
12.77
15.82
17.28
17.26
16.00
13.95
11.72
9.94
9.01
9.11
10.02
11.34
12.61
13.48
13.78
13.54
12.87
11.84
10.44
8.60
6.25
3.49
0.55
-2.26
-4.71
-6.74
-8.58
-10.69
-13.56
-17.60
-22.80
-28.70
-34.30
-38.30
-39.48
-37.14
-31.38
-23.06
-13.52
-4.07
4.33
11.27
16.69
20.67
23.23
24.28
23.85
22.14
19.66
17.05
14.90
13.55
13.04
13.20
13.72
14.34
14.81
14.96
14.62
13.61
11.84
9.31
6.18
2.73
-0.73
-3.94
-6.79
-9.33
-11.80
-14.56
-18.01
-22.47
-28.02
-34.29
-40.43
-45.21
-47.38
-46.06
-41.02
-32.87
-22.75
-12.08
-2.11
6.32
12.81
17.34
20.11
21.46
21.73
21.30
20.48
19.53
18.64
17.96
17.62
17.72
18.29
19.20
20.21
20.92
20.92
19.90
17.74
14.61
10.85
6.86
2.99
-0.60
-3.94
-7.17
-10.50
-14.19
-18.52
-23.73
-29.88
-36.60
-43.02
-47.86
-49.77
-47.83
-41.92
-32.83
-21.95
-10.88
-0.90
7.26
13.44
17.80
20.68
22.34
22.95
22.69
21.77
20.58
19.51
18.93
19.01
19.66
20.61
21.52
22.14
22.37
22.21
21.62
20.52
18.71
16.03
12.47
8.25
3.75
-0.55
-4.33
-7.57
-10.53
-13.81
-18.03
-23.62
-30.47
-37.77
-44.19
-48.18
-48.56
-44.86
-37.59
-27.96
-17.44
-7.32
1.61
9.05
15.03
19.64
22.90
24.80
25.42
25.07
24.27
23.65
23.69
24.53
25.93
27.37
28.36
28.59
28.08
27.07
25.83
24.47
22.83
20.65
17.70
14.04
9.92
5.80
2.05
-1.22
-4.19
-7.23
-10.81
-15.25
-20.61
-26.70
-32.97
-38.63
-42.70
-44.24
-42.59
-37.60
-29.80
-20.19
-10.07
-0.56
7.58
14.09
19.03
22.57
24.85
25.94
25.97
25.25
24.28
23.63
23.74
24.75
26.45
28.39
30.04
31.03
31.21
30.63
29.46
27.83
25.81
23.38
20.51
17.25
13.73
10.18
6.80
3.74
0.98
-1.62
-4.36
-7.62
-11.75
-16.98
-23.31
-30.34
-37.27
-42.94
-46.13
-45.93
-42.03
-34.91
-25.73
-15.90
-6.66
1.28
7.70
12.76
16.60
19.27
20.70
20.84
19.97
18.62
17.46
16.99
17.36
18.28
19.27
19.87
19.84
19.28
18.39
17.45
16.51
15.46
14.06
12.09
9.49
6.38
3.04
-0.28
-3.37
-6.21
-8.88
-11.56
-14.47
-17.79
-21.70
-26.28
-31.47
-36.86
-41.74
-45.11
-46.00
-43.76
-38.31
-30.28
-20.75
-10.98
-2.02
5.51
11.37
15.68
18.57
20.21
20.69
20.22
19.20
18.16
17.64
17.92
18.95
20.32
21.50
22.08
21.96
21.31
20.39
19.35
18.09
16.36
13.88
10.61
6.75
2.75
-0.96
-4.12
-6.75
-9.18
-11.93
-15.48
-20.16
-25.90
-32.22
-38.20
-42.69
-44.60
-43.24
-38.52
-31.04
-21.90
-12.36
-3.50
4.02
9.93
14.26
17.15
18.74
19.21
18.78
17.85
16.85
16.20
16.08
16.44
17.05
17.64
18.06
18.28
18.33
18.18
17.67
16.56
14.63
11.87
8.46
4.76
1.14
-2.17
-5.09
-7.74
-10.36
-13.28
-16.87
-21.49
-27.24
-33.85
-40.48
-45.86
-48.62
-47.78
-43.17
-35.43
-25.86
-15.90
-6.69
1.15
7.49
12.41
16.09
18.58
19.99
20.41
20.16
19.60
19.13
18.99
19.25
19.78
20.35
20.76
20.87
20.68
20.26
19.60
18.62
17.10
14.83
11.67
7.74
3.34
-1.08
-5.18
-8.76
-11.88
-14.86
-18.16
-22.26
-27.43
-33.52
-39.81
-45.07
-47.93
-47.27
-42.77
-34.98
-25.22
-15.06
-5.76
2.03
8.31
13.36
17.45
20.59
22.62
23.44
23.23
22.43
21.62
21.24
21.39
21.83
22.18
22.14
21.64
20.89
20.17
19.67
19.28
18.72
17.58
15.56
12.63
9.00
5.08
1.30
-2.11
-5.15
-8.04
-11.14
-14.86
-19.50
-25.12
-31.55
-38.21
-44.22
-48.52
-50.08
-48.34
-43.25
-35.50
-26.21
-16.66
-7.91
-0.56
5.32
9.99
13.74
16.82
19.21
20.83
21.68
21.93
21.98
22.26
23.09
24.42
25.95
27.17
27.68
27.35
26.33
25.02
23.74
22.70
21.74
20.58
18.84
16.31
13.04
9.27
5.40
1.75
-1.50
-4.47
-7.39
-10.69
-14.74
-19.76
-25.71
-32.20
-38.48
-43.54
-46.34
-46.09
-42.50
-35.93
-27.21
-17.51
-7.89
0.82
8.19
14.03
18.32
21.13
22.61
23.02
22.74
22.22
21.82
21.81
22.26
23.07
24.00
24.74
25.07
24.83
24.04
22.86
21.52
20.25
19.09
17.90
16.41
14.33
11.51
8.09
4.43
0.95
-2.04
-4.45
-6.49
-8.54
-11.03
-14.31
-18.55
-23.72
-29.55
-35.46
-40.58
-43.90
-44.54
-42.06
-36.66
-29.17
-20.72
-12.43
-5.08
0.95
5.58
8.87
10.87
11.63
11.29
10.17
8.76
7.68
7.39
8.06
9.52
11.29
12.89
14.01
14.62
14.83
14.86
14.72
14.25
13.22
11.43
8.94
5.98
2.94
0.14
-2.25
-4.26
-6.13
-8.17
-10.71
-13.99
-18.11
-22.97
-28.26
-33.47
-37.87
-40.62
-40.94
-38.37
-32.92
-25.26
-16.46
-7.73
0.00
6.24
10.94
14.32
16.58
17.76
17.81
16.76
14.93
12.89
11.33
10.75
11.24
12.43
13.74
14.64
14.91
14.71
14.36
14.15
14.05
13.72
12.71
10.72
7.78
4.26
0.73
-2.45
-5.15
-7.68
-10.53
-14.19
-19.00
-24.92
-31.62
-38.34
-44.14
-47.90
-48.73
-46.11
-40.17
-31.68
-21.84
-11.97
-3.11
4.19
9.85
14.07
17.12
19.15
20.21
20.38
19.86
19.03
18.29
17.95
18.05
18.44
18.89
19.21
19.40
19.50
19.56
19.44
18.85
17.48
15.15
11.89
7.98
3.81
-0.26
-4.02
-7.44
-10.68
-14.04
-17.89
-22.60
-28.35
-34.94
-41.73
-47.63
-51.41
-52.04
-49.02
-42.66
-33.83
-23.80
-13.83
-4.83
2.67
8.60
13.05
16.27
18.42
19.67
20.18
20.19
20.03
20.05
20.49
21.36
22.42
23.23
23.41
22.81
21.60
20.12
18.67
17.28
15.66
13.38
10.15
6.05
1.50
-2.89
-6.61
-9.57
-12.02
-14.58
-17.88
-22.39
-28.13
-34.63
-40.95
-45.88
-48.27
-47.31
-42.88
-35.55
-26.38
-16.66
-7.44
0.62
7.26
12.51
16.44
19.12
20.59
21.01
20.65
20.00
19.53
19.55
20.09
20.91
21.65
22.00
21.92
21.52
21.06
20.71
20.38
19.77
18.49
16.29
13.17
9.43
5.54
1.93
-1.21
-3.92
-6.42
-9.05
-12.16
-16.11
-21.10
-27.15
-33.85
-40.27
-45.15
-47.20
-45.63
-40.44
-32.50
-23.13
-13.72
-5.25
1.87
7.63
12.25
15.88
18.57
20.23
20.89
20.69
20.01
19.33
19.11
19.61
20.80
22.36
23.82
24.73
24.92
24.50
23.80
23.12
22.52
21.75
20.38
18.05
14.66
10.54
6.24
2.32
-0.94
-3.66
-6.24
-9.21
-12.91
-17.46
-22.74
-28.42
-33.96
-38.72
-41.88
-42.69
-40.61
-35.63
-28.26
-19.43
-10.23
-1.54
6.08
12.40
17.39
21.04
23.38
24.47
24.52
23.90
23.09
22.54
22.56
23.21
24.30
25.57
26.63
27.24
27.27
26.77
25.88
24.77
23.55
22.16
20.51
18.38
15.64
12.29
8.53
4.68
1.11
-1.98
-4.68
-7.33
-10.47
-14.59
-19.94
-26.37
-33.26
-39.71
-44.65
-47.15
-46.65
-43.09
-36.89
-28.85
-19.91
-10.98
-2.74
4.32
9.91
13.86
16.15
16.90
16.51
15.53
14.61
14.20
14.52
15.41
16.53
17.51
18.14
18.43
18.46
18.34
18.06
17.52
16.55
15.06
13.06
10.63
7.87
4.88
1.76
-1.43
-4.63
-7.84
-11.11
-14.60
-18.52
-23.03
-28.15
-33.52
-38.44
-41.97
-43.13
-41.34
-36.55
-29.40
-20.91
-12.16
-4.04
3.03
8.86
13.44
16.72
18.57
18.95
18.05
16.33
14.44
13.01
12.44
12.79
13.81
15.07
16.20
16.91
17.16
16.93
16.24
15.00
13.11
10.50
7.31
3.87
0.59
-2.18
-4.37
-6.24
-8.30
-11.18
-15.36
-21.00
-27.73
-34.73
-40.81
-44.74
-45.55
-42.86
-36.94
-28.66
-19.21
-9.71
-1.10
6.13
11.74
15.70
18.07
19.03
18.87
17.94
16.68
15.43
14.40
13.67
13.22
13.02
13.05
13.32
13.71
14.02
13.92
13.10
11.37
8.78
5.57
2.09
-1.34
-4.58
-7.68
-10.89
-14.57
-19.02
-24.44
-30.71
-37.37
-43.62
-48.46
-50.84
-50.04
-45.86
-38.71
-29.60
-19.76
-10.41
-2.34
4.07
8.88
12.29
14.47
15.52
15.48
14.50
12.87
11.06
9.52
8.48
7.87
7.34
6.50
5.07
3.06
0.74
-1.55
-3.60
-5.48
-7.48
-10.01
-13.35
-17.51
-22.16
-26.75
-30.71
-33.72
-35.93
-37.94
-40.58
-44.34
-49.01
-53.50
-56.07
-54.98
-49.09
-38.20
-22.94
-4.57
15.16
33.92
48.90
57.47
58.12
51.41
40.10
28.10
18.90
14.13
13.19
14.13
15.13
15.45
15.53
16.13
17.50
18.91
19.19
17.45
13.66
8.57
3.10
-2.12
-6.98
-11.74
-16.62
-21.52
-25.96
-29.31
-31.07
-31.13
-29.79
-27.66
-25.39
-23.36
-21.56
-19.47
-16.32
-11.31
-3.94
5.83
17.53
30.28
43.12
55.14
65.72
74.39
80.87
85.01
86.84
86.65
85.01
82.67
80.36
78.59
77.51
76.91
76.44
75.68
74.44
72.58
70.12
66.98
63.05
58.18
52.30
45.54
38.18
30.67
23.35
16.41
9.78
3.17
-3.79
-11.40
-19.69
-28.30
-36.41
-42.98
-46.99
-47.83
-45.54
-40.77
-34.63
-28.24
-22.47
-17.78
-14.30
-12.00
-10.85
-10.92
-12.25
-14.87
-18.60
-23.16
-28.07
-32.78
-36.75
-39.54
-40.95
-41.02
-40.04
-38.42
-36.55
-34.73
-33.16
-31.94
-31.14
-30.76
-30.69
-30.77
-30.79
-30.66
-30.46
-30.48
-31.14
-32.81
-35.71
-39.79
-44.73
-49.85
-54.20
-56.74
-56.47
-52.91
-46.22
-37.28
-27.34
-17.63
-8.94
-1.46
4.98
10.64
15.48
19.29
21.74
22.77
22.70
22.19
21.96
22.37
23.39
24.47
25.00
24.50
22.94
20.72
18.46
16.70
15.60
14.87
13.87
11.98
8.94
4.94
0.56
-3.56
-7.05
-9.97
-12.62
-15.25
-17.64
-19.10
-18.67
-15.53
-9.47
-1.07
8.48
17.69
25.34
30.77
33.97
35.43
35.77
35.40
34.47
32.89
30.67
28.18
26.14
25.45
26.75
30.10
34.87
39.99
44.40
47.39
48.74
48.56
47.07
44.36
40.48
35.59
29.96
24.00
18.04
12.20
6.27
-0.20
-7.65
-16.19
-25.31
-33.92
-40.54
-43.93
-43.45
-39.40
-32.83
-25.09
-17.30
-10.05
-3.37
2.92
8.85
14.13
18.18
20.57
21.25
20.69
19.62
18.77
18.54
18.89
19.43
19.72
19.43
18.50
17.02
15.12
12.78
9.93
6.50
2.58
-1.60
-5.77
-9.71
-13.43
-17.13
-21.15
-25.83
-31.33
-37.50
-43.76
-49.15
-52.47
-52.71
-49.30
-42.48
-33.22
-22.92
-13.00
-4.47
2.25
7.30
11.06
13.93
16.13
17.66
18.45
18.44
17.78
16.73
15.66
14.87
14.56
14.69
15.03
15.26
15.07
14.26
12.80
10.78
8.32
5.53
2.49
-0.73
-4.03
-7.31
-10.52
-13.83
-17.52
-21.90
-26.97
-32.28
-36.86
-39.48
-39.16
-35.49
-28.88
-20.38
-11.28
-2.72
4.65
10.58
15.16
18.47
20.62
21.61
21.53
20.65
19.34
18.11
17.30
17.11
17.48
18.17
18.86
19.28
19.29
18.81
17.86
16.40
14.37
11.75
8.58
5.06
1.47
-1.89
-4.89
-7.59
-10.33
-13.56
-17.67
-22.78
-28.51
-34.01
-38.07
-39.54
-37.64
-32.34
-24.35
-14.92
-5.42
3.12
10.09
15.38
19.08
21.38
22.40
22.31
21.36
19.94
18.50
17.38
16.72
16.45
16.37
16.31
16.23
16.18
16.14
15.94
15.25
13.76
11.34
8.18
4.71
1.39
-1.45
-3.85
-6.09
-8.58
-11.72
-15.72
-20.58
-26.02
-31.47
-36.09
-38.96
-39.24
-36.52
-30.96
-23.31
-14.70
-6.29
0.99
6.65
10.60
12.97
14.01
13.94
13.01
11.49
9.73
8.04
6.72
5.92
5.62
5.74
6.10
6.51
6.70
6.44
5.47
3.70
1.18
-1.83
-4.93
-7.82
-10.31
-12.49
-14.66
-17.19
-20.41
-24.46
-29.19
-34.06
-38.22
-40.65
-40.45
-37.10
-30.75
-22.14
-12.46
-3.00
5.27
11.73
16.25
18.97
20.12
19.93
18.61
16.45
13.77
11.06
8.78
7.31
6.86
7.36
8.51
9.84
10.88
11.22
10.66
9.19
7.01
4.42
1.74
-0.76
-3.04
-5.27
-7.85
-11.27
-15.93
-21.92
-28.83
-35.78
-41.48
-44.70
-44.64
-41.21
-35.06
-27.33
-19.19
-11.50
-4.66
1.32
6.53
10.92
14.23
16.09
16.29
14.92
12.52
9.87
7.78
6.80
7.02
8.08
9.31
10.07
9.93
8.89
7.17
5.20
3.31
1.64
0.11
-1.56
-3.76
-6.88
-11.20
-16.78
-23.38
-30.28
-36.50
-40.77
-42.12
-40.02
-34.72
-27.14
-18.59
-10.36
-3.34
2.11
6.07
8.78
10.48
11.29
11.34
10.81
10.04
9.49
9.51
10.24
11.43
12.63
13.30
13.01
11.71
9.55
6.92
4.13
1.34
-1.58
-4.82
-8.57
-12.87
-17.54
-22.27
-26.59
-29.90
-31.59
-31.08
-28.01
-22.41
-14.76
-5.92
3.11
11.46
18.48
23.84
27.37
29.04
28.92
27.22
24.41
21.14
18.11
15.85
14.58
14.18
14.25
14.32
14.04
13.22
11.87
10.12
8.15
6.08
3.96
1.72
-0.87
-4.07
-8.14
-13.13
-18.72
-24.16
-28.40
-30.34
-29.29
-25.15
-18.53
-10.52
-2.32
5.17
11.48
16.47
20.15
22.46
23.24
22.47
20.40
17.71
15.26
13.83
13.72
14.64
15.91
16.76
16.74
15.79
14.24
12.48
10.76
9.02
7.00
4.36
0.85
-3.57
-8.76
-14.30
-19.64
-23.97
-26.47
-26.43
-23.55
-17.98
-10.37
-1.75
6.84
14.48
20.56
24.74
26.95
27.30
26.09
23.80
20.99
18.30
16.23
15.06
14.76
15.08
15.62
15.99
15.99
15.55
14.73
13.60
12.13
10.24
7.74
4.48
0.33
-4.73
-10.58
-16.78
-22.61
-27.07
-29.15
-28.13
-23.91
-17.15
-9.04
-0.97
5.95
11.15
14.52
16.31
16.72
15.91
14.02
11.36
8.46
6.01
4.58
4.36
5.04
5.96
6.35
5.72
3.97
1.41
-1.44
-4.10
-6.33
-8.16
-9.91
-12.02
-14.91
-18.76
-23.35
-28.08
-31.92
-33.86
-33.13
-29.54
-23.54
-16.05
-8.15
-0.70
5.68
10.66
14.02
15.56
15.21
13.11
9.83
6.20
3.18
1.43
1.11
1.87
3.00
3.82
3.90
3.23
2.01
0.51
-1.11
-2.92
-5.04
-7.70
-10.96
-14.81
-19.04
-23.35
-27.20
-29.88
-30.70
-29.12
-25.05
-18.90
-11.55
-3.99
2.88
8.47
12.54
14.99
15.82
15.05
12.83
9.59
6.02
2.92
0.93
0.32
0.87
2.03
3.18
3.89
3.96
3.46
2.56
1.34
-0.13
-1.95
-4.20
-7.07
-10.69
-15.13
-20.20
-25.36
-29.67
-32.02
-31.54
-27.86
-21.41
-13.21
-4.52
3.59
10.51
16.09
20.41
23.53
25.38
25.81
24.85
22.86
20.50
18.55
17.57
17.64
18.31
18.82
18.47
16.90
14.27
11.06
7.88
5.07
2.60
0.15
-2.77
-6.52
-11.25
-16.80
-22.72
-28.27
-32.60
-34.82
-34.28
-30.81
-24.81
-17.14
-8.87
-0.95
6.04
11.85
16.44
19.79
21.84
22.55
22.05
20.74
19.23
18.15
17.91
18.52
19.61
20.62
21.02
20.52
19.16
17.19
14.89
12.45
9.86
7.00
3.73
-0.03
-4.30
-9.10
-14.41
-20.13
-25.92
-31.05
-34.53
-35.42
-33.11
-27.75
-20.13
-11.48
-3.04
4.38
10.49
15.36
19.16
21.96
23.68
24.25
23.76
22.56
21.19
20.13
19.70
19.88
20.43
21.00
21.22
20.84
19.74
17.93
15.48
12.57
9.38
6.07
2.78
-0.50
-3.75
-7.06
-10.51
-14.28
-18.55
-23.42
-28.72
-33.86
-37.85
-39.56
-38.16
-33.44
-26.01
-17.06
-7.92
0.40
7.42
13.13
17.70
21.23
23.60
24.71
24.60
23.65
22.48
21.80
21.99
23.02
24.40
25.47
25.70
24.94
23.46
21.73
20.20
18.96
17.79
16.24
13.94
10.82
7.14
3.40
0.04
-2.77
-5.23
-7.79
-10.98
-15.17
-20.37
-26.26
-32.13
-37.13
-40.34
-41.04
-38.88
-34.02
-27.07
-19.01
-10.84
-3.37
2.89
7.82
11.49
14.04
15.60
16.25
16.18
15.65
15.06
14.83
15.25
16.39
18.01
19.72
21.02
21.60
21.36
20.47
19.27
18.03
16.90
15.76
14.41
12.55
10.08
7.09
3.86
0.71
-2.13
-4.57
-6.78
-9.06
-11.80
-15.32
-19.79
-25.12
-30.87
-36.22
-40.11
-41.56
-39.95
-35.30
-28.30
-20.04
-11.71
-4.16
2.14
7.14
10.90
13.49
14.90
15.15
14.43
13.15
11.92
11.28
11.53
12.62
14.18
15.68
16.64
16.86
16.39
15.47
14.36
13.23
12.02
10.55
8.61
6.08
3.06
-0.22
-3.42
-6.25
-8.60
-10.51
-12.21
-13.98
-16.15
-18.99
-22.71
-27.35
-32.62
-37.83
-41.94
-43.81
-42.59
-38.08
-30.86
-22.08
-13.07
-4.84
2.06
7.62
12.02
15.39
17.67
18.70
18.44
17.13
15.34
13.80
13.12
13.57
14.92
16.60
17.95
18.47
18.04
16.89
15.40
13.85
12.21
10.30
7.83
4.76
1.30
-2.09
-4.93
-7.02
-8.50
-9.86
-11.70
-14.49
-18.43
-23.38
-28.88
-34.25
-38.64
-41.22
-41.32
-38.63
-33.34
-26.07
-17.75
-9.41
-1.87
4.35
9.05
12.27
14.18
15.02
15.05
14.56
13.83
13.11
12.66
12.66
13.19
14.17
15.42
16.61
17.40
17.56
16.98
15.72
13.92
11.71
9.18
6.34
3.23
-0.06
-3.33
-6.37
-9.06
-11.51
-13.98
-16.92
-20.68
-25.44
-30.94
-36.50
-41.10
-43.59
-43.13
-39.37
-32.70
-24.07
-14.74
-5.92
1.60
7.53
11.98
15.22
17.48
18.84
19.29
18.94
18.05
17.10
16.56
16.75
17.62
18.83
19.85
20.28
19.97
19.05
17.80
16.39
14.85
12.95
10.49
7.41
3.89
0.30
-2.96
-5.64
-7.81
-9.79
-12.08
-15.16
-19.30
-24.46
-30.13
-35.53
-39.63
-41.55
-40.70
-36.95
-30.71
-22.72
-13.97
-5.39
2.23
8.41
12.92
15.80
17.26
17.58
17.16
16.38
15.61
15.08
14.93
15.12
15.49
15.84
16.01
15.99
15.80
15.48
14.94
14.00
12.44
10.12
7.10
3.63
0.05
-3.37
-6.52
-9.51
-12.56
-15.93
-19.83
-24.36
-29.48
-34.90
-40.10
-44.26
-46.48
-45.94
-42.28
-35.73
-27.13
-17.68
-8.51
-0.45
6.12
11.19
14.90
17.39
18.66
18.78
17.90
16.42
14.84
13.71
13.37
13.85
14.94
16.24
17.37
18.09
18.29
17.95
17.03
15.51
13.33
10.56
7.36
3.98
0.70
-2.35
-5.09
-7.68
-10.41
-13.74
-18.05
-23.54
-29.86
-36.13
-41.05
-43.30
-42.02
-37.14
-29.43
-20.18
-10.75
-2.11
5.23
11.17
15.80
19.12
21.08
21.63
20.97
19.55
18.06
17.16
17.21
18.16
19.57
20.85
21.62
21.77
21.50
21.13
20.81
20.40
19.57
17.89
15.19
11.63
7.58
3.57
-0.10
-3.39
-6.54
-9.94
-13.96
-18.85
-24.63
-31.04
-37.41
-42.78
-46.02
-46.17
-42.77
-36.10
-27.12
-17.15
-7.50
0.95
7.81
13.09
16.98
19.67
21.29
21.98
22.00
21.69
21.43
21.50
21.99
22.78
23.57
24.07
24.11
23.71
22.99
22.15
21.21
20.04
18.35
15.87
12.54
8.54
4.28
0.19
-3.45
-6.64
-9.62
-12.76
-16.47
-21.01
-26.44
-32.41
-38.21
-42.73
-44.81
-43.58
-38.82
-31.13
-21.66
-11.81
-2.75
4.87
10.90
15.48
18.83
21.07
22.25
22.49
22.02
21.23
20.54
20.25
20.46
21.04
21.74
22.31
22.60
22.54
22.15
21.45
20.36
18.81
16.67
13.89
10.55
6.88
3.16
-0.30
-3.29
-5.88
-8.33
-11.13
-14.82
-19.73
-25.76
-32.23
-37.93
-41.49
-41.76
-38.26
-31.40
-22.31
-12.42
-3.05
4.97
11.32
16.04
19.26
21.14
21.83
21.56
20.70
19.72
19.07
19.01
19.53
20.40
21.24
21.73
21.71
21.28
20.63
19.95
19.22
18.24
16.68
14.29
11.08
7.33
3.56
0.19
-2.59
-4.96
-7.33
-10.24
-14.12
-19.11
-25.06
-31.43
-37.41
-41.96
-44.09
-43.12
-38.87
-31.82
-22.95
-13.48
-4.53
3.15
9.23
13.70
16.71
18.38
18.82
18.17
16.69
14.84
13.14
12.03
11.74
12.18
13.09
14.08
14.89
15.33
15.34
14.82
13.69
11.88
9.43
6.57
3.60
0.88
-1.43
-3.39
-5.26
-7.47
-10.36
-14.18
-18.91
-24.25
-29.61
-34.08
-36.66
-36.44
-33.00
-26.51
-17.85
-8.30
0.83
8.57
14.45
18.49
20.96
22.14
22.28
21.55
20.17
18.48
16.85
15.64
15.02
15.00
15.38
15.89
16.22
16.14
15.51
14.29
12.55
10.42
8.05
5.49
2.75
-0.19
-3.32
-6.60
-9.96
-13.43
-17.20
-21.51
-26.51
-31.91
-36.94
-40.46
-41.30
-38.77
-32.91
-24.59
-15.09
-5.77
2.37
8.88
13.73
17.11
19.22
20.17
20.04
18.99
17.29
15.39
13.74
12.68
12.40
12.81
13.64
14.48
14.91
14.63
13.53
11.68
9.28
6.60
3.81
1.01
-1.80
-4.68
-7.66
-10.83
-14.29
-18.23
-22.81
-28.03
-33.46
-38.28
-41.41
-41.80
-38.88
-32.76
-24.31
-14.82
-5.60
2.39
8.74
13.49
16.98
19.49
21.14
21.92
21.80
20.89
19.55
18.31
17.63
17.77
18.60
19.74
20.64
20.90
20.33
19.00
17.08
14.75
12.08
9.06
5.67
1.96
-1.97
-5.95
-9.92
-13.92
-18.20
-23.07
-28.70
-34.81
-40.63
-44.96
-46.53
-44.51
-38.83
-30.27
-20.15
-9.99
-0.92
6.47
12.12
16.28
19.22
21.13
22.09
22.20
21.69
20.93
20.36
20.35
20.99
22.08
23.23
23.98
24.00
23.24
21.81
19.90
17.64
15.05
12.07
8.65
4.85
0.85
-3.12
-6.92
-10.53
-14.17
-18.21
-22.96
-28.51
-34.41
-39.76
-43.32
-43.95
-41.00
-34.63
-25.74
-15.70
-5.88
2.77
9.81
15.33
19.54
22.67
24.78
25.82
25.87
25.15
24.12
23.27
22.97
23.31
24.09
24.94
25.46
25.46
24.90
23.92
22.60
20.93
18.80
16.04
12.60
8.61
4.40
0.31
-3.38
-6.71
-9.98
-13.65
-18.21
-23.79
-30.10
-36.34
-41.38
-44.07
-43.56
-39.62
-32.71
-23.88
-14.34
-5.26
2.64
9.01
13.81
17.13
19.09
19.81
19.50
18.55
17.36
16.34
15.73
15.57
15.73
16.01
16.23
16.27
16.03
15.41
14.32
12.74
10.67
8.21
5.45
2.53
-0.46
-3.42
-6.32
-9.22
-12.33
-15.97
-20.41
-25.74
-31.61
-37.28
-41.68
-43.79
-42.88
-38.79
-31.99
-23.37
-14.07
-5.14
2.59
8.70
13.05
15.73
16.98
17.09
16.38
15.24
14.09
13.30
13.15
13.73
14.90
16.40
17.84
18.85
19.10
18.40
16.70
14.12
10.91
7.41
3.97
0.80
-2.00
-4.50
-6.90
-9.44
-12.39
-15.99
-20.39
-25.50
-30.92
-35.85
-39.16
-39.78
-37.01
-30.87
-22.17
-12.28
-2.63
5.70
12.19
16.92
20.20
22.35
23.48
23.67
23.01
21.80
20.46
19.45
19.04
19.25
19.86
20.51
20.86
20.64
19.72
18.04
15.64
12.68
9.35
5.91
2.53
-0.67
-3.73
-6.77
-10.00
-13.66
-17.99
-23.15
-29.05
-35.22
-40.78
-44.56
-45.46
-42.79
-36.69
-28.01
-18.16
-8.57
-0.29
6.23
11.12
14.73
17.47
19.47
20.72
21.13
20.78
19.93
19.04
18.51
18.51
18.95
19.49
19.75
19.46
18.54
17.01
14.96
12.48
9.66
6.65
3.57
0.58
-2.26
-5.03
-7.94
-11.32
-15.44
-20.51
-26.46
-32.89
-38.97
-43.56
-45.47
-43.84
-38.52
-30.13
-19.95
-9.49
0.01
7.83
13.85
18.31
21.54
23.76
25.03
25.40
25.01
24.20
23.37
22.86
22.77
23.00
23.24
23.24
22.78
21.81
20.38
18.54
16.31
13.71
10.72
7.41
3.87
0.27
-3.22
-6.52
-9.71
-13.05
-16.92
-21.69
-27.43
-33.72
-39.64
-43.94
-45.42
-43.41
-37.99
-29.94
-20.53
-10.99
-2.30
5.09
11.05
15.71
19.15
21.41
22.52
22.59
21.92
20.96
20.20
19.99
20.43
21.31
22.28
22.94
23.11
22.78
22.07
21.09
19.77
17.96
15.44
12.20
8.42
4.51
0.91
-2.13
-4.63
-6.90
-9.42
-12.67
-17.01
-22.44
-28.61
-34.69
-39.62
-42.27
-41.82
-38.04
-31.38
-22.85
-13.63
-4.78
2.99
9.38
14.28
17.72
19.74
20.47
20.21
19.48
18.82
18.71
19.29
20.41
21.69
22.70
23.18
23.04
22.43
21.52
20.38
19.03
17.34
15.22
12.62
9.64
6.43
3.22
0.17
-2.68
-5.39
-8.18
-11.25
-14.84
-19.10
-24.13
-29.84
-35.88
-41.55
-45.84
-47.67
-46.22
-41.31
-33.51
-24.01
-14.22
-5.29
2.15
7.97
12.25
15.16
16.73
17.05
16.38
15.18
14.14
13.78
14.37
15.74
17.45
18.94
19.82
19.95
19.43
18.51
17.40
16.18
14.71
12.78
10.22
7.03
3.46
-0.16
-3.48
-6.41
-9.09
-11.93
-15.35
-19.66
-24.83
-30.46
-35.77
-39.74
-41.42
-40.11
-35.74
-28.77
-20.18
-11.13
-2.65
4.62
10.43
14.82
17.91
19.78
20.45
20.02
18.77
17.22
15.95
15.43
15.82
16.87
18.12
19.11
19.57
19.51
19.12
18.54
17.74
16.49
14.49
11.54
7.74
3.43
-0.90
-4.80
-8.06
-10.77
-13.27
-16.04
-19.58
-24.22
-29.96
-36.37
-42.58
-47.47
-49.91
-49.13
-44.95
-37.79
-28.64
-18.66
-8.99
-0.39
6.70
12.18
16.12
18.66
19.99
20.34
20.00
19.35
18.75
18.51
18.76
19.43
20.28
21.01
21.37
21.23
20.58
19.47
17.90
15.84
13.21
10.03
6.46
2.71
-0.90
-4.20
-7.15
-9.84
-12.53
-15.54
-19.20
-23.72
-29.07
-34.81
-40.07
-43.75
-44.81
-42.64
-37.33
-29.64
-20.74
-11.79
-3.68
3.20
8.80
13.25
16.62
18.89
20.05
20.18
19.59
18.75
18.17
18.17
18.82
19.86
20.91
21.56
21.61
21.08
20.14
19.00
17.73
16.26
14.40
12.00
9.00
5.54
1.91
-1.59
-4.75
-7.59
-10.42
-13.71
-17.95
-23.40
-29.92
-36.83
-43.04
-47.29
-48.56
-46.37
-40.91
-33.01
-23.79
-14.36
-5.53
2.23
8.72
13.91
17.80
20.41
21.80
22.18
21.89
21.35
20.98
21.07
21.67
22.63
23.69
24.55
24.99
24.87
24.23
23.12
21.62
19.78
17.51
14.75
11.45
7.68
3.65
-0.35
-4.02
-7.27
-10.19
-13.13
-16.56
-20.96
-26.56
-33.16
-40.04
-45.99
-49.65
-49.87
-46.26
-39.27
-30.09
-20.23
-10.92
-2.84
3.95
9.65
14.48
18.39
21.10
22.42
22.41
21.54
20.48
19.91
20.16
21.23
22.73
24.17
25.15
25.49
25.30
24.79
24.16
23.41
22.37
20.71
18.17
14.67
10.40
5.81
1.40
-2.44
-5.65
-8.48
-11.40
-14.92
-19.34
-24.70
-30.63
-36.49
-41.37
-44.35
-44.71
-42.05
-36.55
-28.81
-19.80
-10.50
-1.79
5.79
11.95
16.67
20.01
22.06
22.96
22.87
22.04
20.83
19.65
18.91
18.85
19.44
20.38
21.22
21.55
21.23
20.38
19.26
18.07
16.77
15.11
12.76
9.53
5.56
1.28
-2.79
-6.26
-9.06
-11.49
-14.08
-17.38
-21.69
-27.03
-32.99
-38.84
-43.61
-46.28
-46.03
-42.52
-36.01
-27.40
-17.91
-8.74
-0.74
5.72
10.65
14.17
16.37
17.30
17.05
15.95
14.57
13.55
13.35
14.06
15.38
16.86
18.07
18.83
19.17
19.18
18.95
18.31
17.07
15.03
12.22
8.89
5.39
2.11
-0.79
-3.29
-5.59
-8.04
-11.00
-14.84
-19.72
-25.52
-31.67
-37.20
-40.88
-41.61
-38.80
-32.63
-24.02
-14.30
-4.82
3.43
9.96
14.80
18.17
20.33
21.48
21.76
21.35
20.52
19.60
18.86
18.44
18.33
18.40
18.54
18.69
18.80
18.80
18.48
17.56
15.80
13.14
9.73
5.94
2.13
-1.40
-4.57
-7.45
-10.20
-13.08
-16.34
-20.31
-25.16
-30.88
-36.96
-42.43
-45.99
-46.41
-43.09
-36.23
-26.91
-16.64
-6.83
1.55
8.18
13.17
16.81
19.30
20.70
21.07
20.62
19.76
18.96
18.60
18.79
19.40
20.07
20.48
20.45
19.96
19.16
18.15
16.95
15.45
13.51
11.01
7.97
4.55
0.96
-2.59
-6.03
-9.39
-12.89
-16.81
-21.42
-26.83
-32.80
-38.65
-43.35
-45.76
-45.00
-40.79
-33.63
-24.60
-15.08
-6.20
1.31
7.32
11.99
15.61
18.33
20.17
21.10
21.18
20.62
19.78
19.04
18.61
18.56
18.75
18.95
19.00
18.83
18.44
17.81
16.83
15.26
12.92
9.80
6.08
2.16
-1.58
-4.94
-8.01
-11.09
-14.59
-18.86
-24.04
-29.98
-36.17
-41.79
-45.77
-47.12
-45.12
-39.72
-31.51
-21.63
-11.44
-2.05
5.83
11.99
16.49
19.51
21.22
21.76
21.42
20.55
19.67
19.22
19.42
20.22
21.35
22.43
23.21
23.57
23.50
23.00
22.00
20.37
18.04
15.05
11.60
7.96
4.39
1.00
-2.21
-5.40
-8.73
-12.41
-16.68
-21.65
-27.27
-33.13
-38.41
-42.07
-43.08
-40.84
-35.42
-27.54
-18.38
-9.23
-1.11
5.42
10.26
13.59
15.72
16.95
17.43
17.35
16.85
16.18
15.60
15.35
15.55
16.16
16.98
17.75
18.22
18.15
17.39
15.88
13.60
10.72
7.42
3.97
0.60
-2.59
-5.61
-8.54
-11.53
-14.80
-18.57
-23.11
-28.46
-34.27
-39.73
-43.63
-44.74
-42.27
-36.30
-27.71
-17.94
-8.46
-0.32
6.04
10.72
14.02
16.22
17.44
17.75
17.23
16.16
15.01
14.25
14.26
15.08
16.48
17.96
19.00
19.20
18.37
16.60
14.12
11.22
8.12
4.98
1.90
-1.05
-3.82
-6.43
-9.04
-11.99
-15.68
-20.41
-26.13
-32.30
-37.88
-41.59
-42.31
-39.41
-33.04
-24.08
-13.90
-3.94
4.71
11.47
16.33
19.59
21.63
22.63
22.70
21.88
20.37
18.59
17.07
16.29
16.41
17.27
18.40
19.28
19.52
18.94
17.57
15.50
12.86
9.73
6.24
2.52
-1.24
-4.90
-8.43
-11.91
-15.63
-19.89
-24.97
-30.80
-36.87
-42.16
-45.42
-45.49
-41.75
-34.44
-24.62
-13.91
-3.88
4.36
10.44
14.65
17.54
19.65
21.19
22.15
22.38
21.90
20.95
19.95
19.35
19.40
20.03
20.88
21.49
21.41
20.38
18.43
15.73
12.55
9.08
5.48
1.78
-1.99
-5.76
-9.47
-13.11
-16.85
-21.00
-25.86
-31.45
-37.27
-42.31
-45.22
-44.86
-40.71
-33.14
-23.30
-12.71
-2.77
5.64
12.19
17.03
20.43
22.60
23.67
23.72
23.01
21.89
20.85
20.24
20.22
20.64
21.22
21.60
21.56
20.99
19.89
18.30
16.24
13.78
10.97
7.95
4.88
1.86
-1.04
-3.89
-6.84
-10.14
-14.06
-18.87
-24.58
-30.82
-36.76
-41.13
-42.68
-40.53
-34.69
-25.98
-15.89
-5.96
2.66
9.50
14.65
18.39
20.98
22.46
22.86
22.33
21.30
20.36
20.02
20.50
21.64
23.03
24.22
24.94
25.09
24.69
23.80
22.38
20.36
17.71
14.51
10.95
7.28
3.76
0.52
-2.48
-5.47
-8.84
-13.03
-18.35
-24.78
-31.87
-38.67
-43.96
-46.54
-45.64
-41.19
-33.84
-24.79
-15.37
-6.67
0.72
6.62
11.16
14.51
16.74
17.86
17.91
17.13
15.93
14.84
14.28
14.49
15.42
16.83
18.34
19.56
20.21
20.08
19.14
17.48
15.26
12.70
9.98
7.24
4.53
1.88
-0.72
-3.41
-6.42
-10.09
-14.72
-20.36
-26.56
-32.41
-36.63
-38.09
-36.09
-30.73
-22.82
-13.59
-4.36
3.93
10.73
15.94
19.63
21.94
22.97
22.86
21.92
20.56
19.34
18.66
18.69
19.32
20.18
20.92
21.29
21.23
20.81
20.06
18.92
17.21
14.69
11.27
7.13
2.60
-1.80
-5.68
-8.85
-11.43
-13.81
-16.50
-20.01
-24.61
-30.30
-36.61
-42.64
-47.23
-49.19
-47.73
-42.67
-34.64
-24.77
-14.46
-4.83
3.39
10.02
15.15
18.97
21.64
23.19
23.71
23.39
22.59
21.76
21.27
21.37
21.98
22.83
23.56
23.88
23.72
23.18
22.43
21.52
20.30
18.46
15.69
11.94
7.47
2.80
-1.50
-5.07
-7.99
-10.68
-13.81
-17.97
-23.48
-30.15
-37.32
-43.93
-48.67
-50.47
-48.66
-43.35
-35.27
-25.62
-15.64
-6.28
1.91
8.78
14.29
18.45
21.27
22.82
23.32
23.15
22.82
22.74
23.16
24.02
25.05
25.85
26.12
25.76
24.89
23.79
22.66
21.52
20.17
18.26
15.57
12.09
8.07
3.95
0.10
-3.25
-6.13
-8.75
-11.43
-14.53
-18.42
-23.32
-29.25
-35.80
-42.13
-47.06
-49.39
-48.31
-43.66
-36.07
-26.68
-16.82
-7.56
0.49
7.16
12.58
16.86
20.04
22.03
22.79
22.52
21.63
20.71
20.31
20.77
22.04
23.75
25.31
26.20
26.11
25.09
23.45
21.56
19.71
17.91
15.96
13.55
10.50
6.94
3.22
-0.18
-2.96
-5.13
-7.07
-9.33
-12.39
-16.58
-21.88
-28.01
-34.39
-40.28
-44.73
-46.86
-45.98
-41.91
-34.98
-26.05
-16.22
-6.56
2.07
9.18
14.53
18.11
20.05
20.58
20.08
18.99
17.80
16.92
16.62
16.99
17.92
19.20
20.51
21.55
22.09
21.98
21.24
19.96
18.28
16.23
13.80
10.86
7.37
3.41
-0.72
-4.60
-7.84
-10.31
-12.24
-14.09
-16.53
-20.09
-24.99
-31.00
-37.41
-43.20
-47.20
-48.42
-46.30
-40.86
-32.78
-23.18
-13.35
-4.36
3.10
8.83
12.88
15.43
16.61
16.52
15.40
13.68
12.04
11.13
11.34
12.67
14.68
16.73
18.32
19.20
19.44
19.28
18.87
18.22
17.11
15.30
12.61
9.12
5.11
1.00
-2.79
-5.99
-8.61
-10.89
-13.26
-16.16
-19.90
-24.55
-29.86
-35.23
-39.75
-42.43
-42.40
-39.23
-33.07
-24.69
-15.23
-5.88
2.45
9.28
14.49
18.24
20.65
21.87
21.96
21.14
19.75
18.29
17.22
16.86
17.22
18.01
18.78
19.14
18.91
18.18
17.17
16.09
14.92
13.47
11.40
8.55
4.91
0.82
-3.26
-6.95
-10.02
-12.58
-14.93
-17.55
-20.92
-25.43
-31.13
-37.64
-44.05
-49.04
-51.27
-49.81
-44.54
-36.21
-26.17
-15.92
-6.58
1.30
7.68
12.76
16.69
19.42
20.81
20.83
19.71
18.04
16.49
15.67
15.78
16.62
17.72
18.55
18.79
18.41
17.60
16.61
15.56
14.32
12.60
10.07
6.59
2.33
-2.30
-6.71
-10.47
-13.45
-15.96
-18.62
-22.13
-27.08
-33.56
-41.11
-48.68
-54.89
-58.34
-58.08
-53.88
-46.38
-36.88
-27.02
-18.43
-12.29
-9.16
-8.79
-10.27
-12.17
-13.02
-11.67
-7.68
-1.43
6.12
13.83
20.76
26.39
30.56
33.30
34.67
34.76
33.71
31.90
29.82
27.98
26.71
26.11
26.02
26.17
26.27
26.16
25.77
25.09
24.06
22.60
20.55
17.77
14.24
10.11
5.67
1.31
-2.63
-6.06
-9.16
-12.39
-16.31
-21.35
-27.62
-34.75
-41.94
-48.02
-51.78
-52.24
-48.97
-42.20
-32.89
-22.33
-11.91
-2.68
4.85
10.64
14.94
18.01
19.96
20.81
20.59
19.59
18.25
17.16
16.75
17.20
18.31
19.71
20.95
21.74
21.95
21.53
20.46
18.64
16.00
12.53
8.39
3.91
-0.53
-4.59
-8.17
-11.41
-14.78
-18.83
-23.96
-30.20
-36.97
-43.16
-47.36
-48.36
-45.52
-39.06
-29.97
-19.66
-9.49
-0.43
7.09
13.10
17.74
21.16
23.41
24.48
24.51
23.79
22.79
21.96
21.65
21.88
22.46
23.08
23.43
23.36
22.82
21.86
20.42
18.39
15.64
12.10
7.96
3.58
-0.53
-4.04
-6.83
-9.22
-11.81
-15.32
-20.25
-26.70
-34.19
-41.69
-47.85
-51.32
-51.14
-47.03
-39.44
-29.50
-18.59
-8.01
1.36
9.08
15.16
19.74
22.96
24.95
25.78
25.73
25.14
24.48
24.10
24.15
24.52
24.95
25.18
25.06
24.66
24.10
23.44
22.61
21.33
19.32
16.37
12.55
8.15
3.59
-0.74
-4.67
-8.32
-12.04
-16.28
-21.45
-27.68
-34.78
-42.11
-48.60
-53.01
-54.20
-51.53
-45.07
-35.64
-24.55
-13.20
-2.71
6.31
13.70
19.58
24.08
27.29
29.20
29.91
29.71
29.07
28.52
28.49
29.11
30.19
31.35
32.14
32.29
31.76
30.67
29.20
27.39
25.22
22.49
19.13
15.16
10.80
6.40
2.30
-1.28
-4.37
-7.22
-10.31
-14.20
-19.33
-25.85
-33.36
-40.95
-47.23
-50.86
-50.80
-46.84
-39.53
-30.03
-19.70
-9.63
-0.50
7.46
14.26
19.90
24.22
27.03
28.25
28.08
27.17
26.32
26.28
27.36
29.33
31.54
33.21
33.82
33.29
31.94
30.23
28.47
26.75
24.89
22.64
19.84
16.49
12.70
8.66
4.54
0.47
-3.47
-7.30
-11.21
-15.49
-20.53
-26.64
-33.72
-41.27
-48.22
-53.21
-55.03
-52.95
-47.07
-38.21
-27.71
-16.96
-7.02
1.51
8.43
13.72
17.43
19.55
20.17
19.61
18.41
17.28
16.82
17.34
18.71
20.46
22.00
22.91
23.00
22.44
21.56
20.68
19.96
19.28
18.36
16.83
14.39
11.06
7.08
2.95
-0.85
-4.03
-6.70
-9.29
-12.42
-16.66
-22.24
-28.92
-35.94
-42.22
-46.54
-47.92
-45.79
-40.24
-31.91
-21.85
-11.22
-1.05
7.95
15.40
21.11
25.05
27.24
27.84
27.19
25.83
24.40
23.44
23.28
23.88
24.92
25.97
26.67
26.82
26.43
25.60
24.45
23.00
21.20
18.96
16.22
12.99
9.34
5.38
1.27
-2.80
-6.75
-10.54
-14.35
-18.46
-23.26
-29.00
-35.64
-42.63
-48.93
-53.27
-54.43
-51.77
-45.37
-36.05
-25.13
-13.98
-3.68
5.15
12.31
17.89
21.97
24.63
25.90
25.96
25.16
24.04
23.15
22.86
23.26
24.09
24.93
25.37
25.22
24.56
23.68
22.86
22.16
21.39
20.09
17.84
14.48
10.15
5.36
0.70
-3.43
-6.97
-10.24
-13.80
-18.21
-23.82
-30.62
-38.13
-45.49
-51.51
-55.02
-55.08
-51.38
-44.32
-34.88
-24.35
-13.90
-4.36
3.90
10.77
16.26
20.34
22.96
24.17
24.15
23.35
22.26
21.41
21.12
21.47
22.28
23.24
24.05
24.45
24.41
24.00
23.34
22.49
21.37
19.79
17.50
14.37
10.45
6.07
1.71
-2.16
-5.25
-7.65
-9.78
-12.29
-15.74
-20.45
-26.31
-32.71
-38.65
-42.97
-44.58
-42.83
-37.68
-29.80
-20.39
-10.81
-2.15
5.06
10.83
15.45
19.19
22.03
23.74
24.15
23.38
21.98
20.69
20.18
20.68
21.91
23.24
24.03
23.90
22.86
21.25
19.51
17.91
16.42
14.81
12.68
9.78
6.08
1.81
-2.63
-6.82
-10.49
-13.60
-16.36
-19.17
-22.44
-26.50
-31.49
-37.15
-42.89
-47.76
-50.71
-50.84
-47.74
-41.64
-33.32
-23.93
-14.61
-6.24
0.69
6.02
9.82
12.18
13.21
13.03
11.84
10.03
8.08
6.51
5.69
5.77
6.58
7.74
8.85
9.58
9.77
9.42
8.64
7.51
6.06
4.26
2.15
-0.18
-2.55
-4.81
-6.87
-8.82
-10.88
-13.37
-16.62
-20.86
-25.97
-31.43
-36.29
-39.39
-39.71
-36.70
-30.56
-22.19
-12.88
-3.89
3.89
10.07
14.68
17.91
19.94
20.84
20.68
19.64
18.02
16.29
14.87
14.06
13.88
14.11
14.40
14.41
13.90
12.84
11.31
9.39
7.21
4.76
2.03
-0.91
-3.99
-7.05
-10.06
-13.08
-16.38
-20.36
-25.36
-31.42
-38.09
-44.42
-49.12
-50.97
-49.19
-43.79
-35.51
-25.60
-15.42
-6.02
1.98
8.45
13.48
17.23
19.76
21.08
21.24
20.42
19.04
17.52
16.32
15.68
15.57
15.81
16.14
16.33
16.23
15.74
14.74
13.13
10.79
7.71
4.02
0.01
-3.95
-7.58
-10.81
-13.88
-17.33
-21.76
-27.55
-34.53
-41.88
-48.20
-51.95
-51.92
-47.72
-39.88
-29.67
-18.67
-8.27
0.69
7.91
13.51
17.72
20.68
22.41
22.96
22.45
21.19
19.62
18.15
17.08
16.54
16.49
16.82
17.36
17.88
18.14
17.79
16.59
14.38
11.23
7.46
3.47
-0.38
-3.96
-7.39
-11.02
-15.29
-20.54
-26.79
-33.62
-40.19
-45.34
-47.89
-46.95
-42.28
-34.41
-24.50
-13.98
-4.14
4.23
10.87
15.93
19.72
22.43
24.14
24.87
24.70
23.97
23.09
22.53
22.54
23.10
23.97
24.77
25.18
25.01
24.20
22.76
20.70
18.04
14.84
11.23
7.43
3.68
0.10
-3.34
-6.92
-11.03
-16.05
-22.04
-28.60
-34.78
-39.31
-40.95
-38.96
-33.34
-24.93
-15.06
-5.14
3.76
11.04
16.60
20.53
23.00
24.14
24.09
23.13
21.68
20.24
19.19
18.74
18.82
19.22
19.65
19.86
19.71
19.06
17.87
16.09
13.75
10.98
7.95
4.84
1.75
-1.33
-4.56
-8.15
-12.35
-17.33
-23.14
-29.56
-35.95
-41.29
-44.36
-44.17
-40.27
-33.04
-23.56
-13.25
-3.47
4.90
11.44
16.14
19.13
20.55
20.59
19.51
17.80
15.99
14.70
14.27
14.81
16.09
17.67
19.04
19.74
19.53
18.30
16.17
13.30
9.93
6.29
2.57
-1.04
-4.45
-7.68
-10.96
